3.01187 274.000
3.03360 261.000
3.05533 248.000
3.07707 243.000
3.09880 240.000
3.12053 272.000
3.14226 233.000
3.16400 239.000
3.18573 246.000
3.20746 221.000
3.22920 235.000
3.25093 222.000
3.27266 215.000
3.29439 219.000
3.31613 210.000
3.33786 226.000
3.35959 220.000
3.38133 188.000
3.40306 214.000
3.42479 196.000
3.44652 217.000
3.46826 214.000
3.48999 199.000
3.51172 217.000
3.53346 187.000
3.55519 197.000
3.57692 182.000
3.59865 198.000
3.62039 187.000
3.64212 181.000
3.66385 158.000
3.68559 177.000
3.70732 190.000
3.72905 168.000
3.75078 172.000
3.77252 182.000
3.79425 192.000
3.81598 194.000
3.83772 180.000
3.85945 161.000
3.88118 171.000
3.90291 157.000
3.92465 163.000
3.94638 162.000
3.96811 166.000
3.98985 160.000
4.01158 178.000
4.03331 171.000
4.05504 158.000
4.07678 159.000
4.09851 170.000
4.12024 154.000
4.14198 145.000
4.16371 148.000
4.18544 125.000
4.20717 173.000
4.22891 146.000
4.25064 166.000
4.27237 142.000
4.29411 164.000
4.31584 150.000
4.33757 152.000
4.35931 167.000
4.38104 137.000
4.40277 139.000
4.42450 158.000
4.44624 166.000
4.46797 136.000
4.48970 129.000
4.51144 141.000
4.53317 151.000
4.55490 143.000
4.57663 115.000
4.59837 138.000
4.62010 140.000
4.64183 164.000
4.66357 165.000
4.68530 144.000
4.70703 141.000
4.72876 146.000
4.75050 131.000
4.77223 106.000
4.79396 137.000
4.81570 151.000
4.83743 143.000
4.85916 125.000
4.88089 145.000
4.90263 130.000
4.92436 132.000
4.94609 122.000
4.96783 123.000
4.98956 127.000
5.01129 145.000
5.03302 132.000
5.05476 154.000
5.07649 131.000
5.09822 139.000
5.11996 127.000
5.14169 121.000
5.16342 112.000
5.18515 127.000
5.20689 130.000
5.22862 142.000
5.25035 144.000
5.27209 132.000
5.29382 129.000
5.31555 127.000
5.33728 104.000
5.35902 125.000
5.38075 141.000
5.40248 123.000
5.42422 154.000
5.44595 133.000
5.46768 142.000
5.48941 131.000
5.51115 119.000
5.53288 152.000
5.55461 125.000
5.57635 138.000
5.59808 121.000
5.61981 138.000
5.64154 143.000
5.66328 133.000
5.68501 112.000
5.70674 126.000
5.72848 110.000
5.75021 116.000
5.77194 122.000
5.79368 128.000
5.81541 143.000
5.83714 124.000
5.85887 115.000
5.88061 118.000
5.90234 139.000
5.92407 145.000
5.94581 105.000
5.96754 134.000
5.98927 112.000
6.01100 135.000
6.03274 134.000
6.05447 152.000
6.07620 114.000
6.09794 127.000
6.11967 120.000
6.14140 108.000
6.16313 139.000
6.18487 115.000
6.20660 115.000
6.22833 126.000
6.25007 134.000
6.27180 157.000
6.29353 127.000
6.31526 149.000
6.33700 110.000
6.35873 126.000
6.38046 109.000
6.40220 116.000
6.42393 111.000
6.44566 127.000
6.46739 120.000
6.48913 115.000
6.51086 125.000
6.53259 124.000
6.55433 118.000
6.57606 129.000
6.59779 138.000
6.61952 148.000
6.64126 136.000
6.66299 113.000
6.68472 139.000
6.70646 119.000
6.72819 137.000
6.74992 125.000
6.77165 139.000
6.79339 148.000
6.81512 123.000
6.83685 125.000
6.85859 136.000
6.88032 142.000
6.90205 111.000
6.92378 130.000
6.94552 124.000
6.96725 148.000
6.98898 127.000
7.01072 111.000
7.03245 132.000
7.05418 126.000
7.07592 128.000
7.09765 148.000
7.11938 115.000
7.14111 127.000
7.16285 136.000
7.18458 133.000
7.20631 133.000
7.22805 131.000
7.24978 134.000
7.27151 138.000
7.29324 126.000
7.31498 143.000
7.33671 140.000
7.35844 123.000
7.38018 116.000
7.40191 137.000
7.42364 134.000
7.44537 126.000
7.46711 129.000
7.48884 119.000
7.51057 136.000
7.53231 118.000
7.55404 130.000
7.57577 137.000
7.59750 134.000
7.61924 147.000
7.64097 133.000
7.66270 111.000
7.68444 137.000
7.70617 131.000
7.72790 156.000
7.74963 134.000
7.77137 145.000
7.79310 127.000
7.81483 136.000
7.83657 155.000
7.85830 146.000
7.88003 121.000
7.90176 126.000
7.92350 136.000
7.94523 145.000
7.96696 131.000
7.98870 145.000
8.01043 127.000
8.03216 122.000
8.05389 128.000
8.07563 122.000
8.09736 128.000
8.11909 128.000
8.14083 129.000
8.16256 153.000
8.18429 163.000
8.20602 111.000
8.22776 123.000
8.24949 140.000
8.27122 144.000
8.29296 150.000
8.31469 164.000
8.33642 177.000
8.35815 175.000
8.37989 170.000
8.40162 195.000
8.42335 217.000
8.44509 215.000
8.46682 242.000
8.48855 262.000
8.51029 348.000
8.53202 350.000
8.55375 432.000
8.57548 532.000
8.59722 611.000
8.61895 695.000
8.64068 651.000
8.66242 732.000
8.68415 798.000
8.70588 653.000
8.72761 584.000
8.74935 526.000
8.77108 395.000
8.79281 348.000
8.81455 275.000
8.83628 235.000
8.85801 226.000
8.87974 185.000
8.90148 192.000
8.92321 142.000
8.94494 138.000
8.96668 165.000
8.98841 130.000
9.01014 140.000
9.03187 142.000
9.05361 124.000
9.07534 145.000
9.09707 118.000
9.11881 132.000
9.14054 133.000
9.16227 145.000
9.18400 158.000
9.20574 139.000
9.22747 138.000
9.24920 137.000
9.27094 131.000
9.29267 149.000
9.31440 146.000
9.33613 171.000
9.35787 167.000
9.37960 143.000
9.40133 133.000
9.42307 130.000
9.44480 150.000
9.46653 161.000
9.48826 138.000
9.51000 154.000
9.53173 148.000
9.55346 179.000
9.57520 179.000
9.59693 138.000
9.61866 148.000
9.64039 149.000
9.66213 159.000
9.68386 124.000
9.70559 146.000
9.72733 165.000
9.74906 139.000
9.77079 139.000
9.79253 129.000
9.81426 148.000
9.83599 144.000
9.85772 144.000
9.87946 134.000
9.90119 121.000
9.92292 135.000
9.94466 139.000
9.96639 133.000
9.98812 146.000
10.00985 141.000
10.03159 148.000
10.05332 128.000
10.07505 129.000
10.09679 135.000
10.11852 143.000
10.14025 137.000
10.16198 121.000
10.18372 148.000
10.20545 135.000
10.22718 121.000
10.24892 140.000
10.27065 126.000
10.29238 123.000
10.31411 132.000
10.33585 155.000
10.35758 137.000
10.37931 142.000
10.40105 118.000
10.42278 125.000
10.44451 142.000
10.46624 135.000
10.48798 140.000
10.50971 127.000
10.53144 125.000
10.55318 134.000
10.57491 145.000
10.59664 140.000
10.61837 134.000
10.64011 151.000
10.66184 122.000
10.68357 138.000
10.70531 137.000
10.72704 142.000
10.74877 129.000
10.77050 150.000
10.79224 136.000
10.81397 144.000
10.83570 139.000
10.85744 138.000
10.87917 136.000
10.90090 151.000
10.92263 139.000
10.94437 144.000
10.96610 155.000
10.98783 132.000
11.00957 134.000
11.03130 146.000
11.05303 132.000
11.07476 142.000
11.09650 125.000
11.11823 148.000
11.13996 121.000
11.16170 156.000
11.18343 131.000
11.20516 131.000
11.22690 139.000
11.24863 172.000
11.27036 149.000
11.29209 151.000
11.31383 142.000
11.33556 131.000
11.35729 142.000
11.37903 134.000
11.40076 124.000
11.42249 136.000
11.44422 155.000
11.46596 142.000
11.48769 134.000
11.50942 144.000
11.53116 145.000
11.55289 151.000
11.57462 135.000
11.59635 126.000
11.61809 124.000
11.63982 156.000
11.66155 136.000
11.68329 156.000
11.70502 140.000
11.72675 148.000
11.74848 159.000
11.77022 137.000
11.79195 141.000
11.81368 136.000
11.83542 156.000
11.85715 147.000
11.87888 168.000
11.90061 146.000
11.92235 125.000
11.94408 160.000
11.96581 143.000
11.98755 140.000
12.00928 137.000
12.03101 149.000
12.05274 151.000
12.07448 133.000
12.09621 151.000
12.11794 122.000
12.13968 135.000
12.16141 165.000
12.18314 143.000
12.20487 144.000
12.22661 155.000
12.24834 148.000
12.27007 159.000
12.29181 134.000
12.31354 144.000
12.33527 173.000
12.35700 138.000
12.37874 152.000
12.40047 155.000
12.42220 146.000
12.44394 150.000
12.46567 153.000
12.48740 174.000
12.50914 135.000
12.53087 172.000
12.55260 134.000
12.57433 149.000
12.59607 144.000
12.61780 171.000
12.63953 135.000
12.66127 124.000
12.68300 150.000
12.70473 166.000
12.72646 150.000
12.74820 159.000
12.76993 154.000
12.79166 176.000
12.81340 155.000
12.83513 150.000
12.85686 139.000
12.87859 152.000
12.90033 152.000
12.92206 158.000
12.94379 176.000
12.96553 150.000
12.98726 149.000
13.00899 145.000
13.03072 162.000
13.05246 160.000
13.07419 156.000
13.09592 157.000
13.11766 140.000
13.13939 149.000
13.16112 142.000
13.18285 132.000
13.20459 145.000
13.22632 137.000
13.24805 148.000
13.26979 139.000
13.29152 137.000
13.31325 148.000
13.33498 152.000
13.35672 153.000
13.37845 161.000
13.40018 178.000
13.42192 152.000
13.44365 178.000
13.46538 190.000
13.48711 184.000
13.50885 170.000
13.53058 201.000
13.55231 186.000
13.57405 191.000
13.59578 187.000
13.61751 148.000
13.63924 186.000
13.66098 169.000
13.68271 206.000
13.70444 179.000
13.72618 174.000
13.74791 169.000
13.76964 156.000
13.79137 149.000
13.81311 187.000
13.83484 154.000
13.85657 173.000
13.87831 168.000
13.90004 181.000
13.92177 173.000
13.94351 172.000
13.96524 159.000
13.98697 181.000
14.00870 166.000
14.03044 184.000
14.05217 175.000
14.07390 174.000
14.09564 186.000
14.11737 155.000
14.13910 174.000
14.16083 179.000
14.18257 165.000
14.20430 181.000
14.22603 170.000
14.24777 176.000
14.26950 148.000
14.29123 190.000
14.31296 191.000
14.33470 164.000
14.35643 165.000
14.37816 166.000
14.39990 168.000
14.42163 188.000
14.44336 184.000
14.46509 197.000
14.48683 168.000
14.50856 170.000
14.53029 175.000
14.55203 152.000
14.57376 208.000
14.59549 163.000
14.61722 196.000
14.63896 165.000
14.66069 161.000
14.68242 172.000
14.70416 194.000
14.72589 173.000
14.74762 210.000
14.76935 193.000
14.79109 192.000
14.81282 190.000
14.83455 173.000
14.85629 186.000
14.87802 204.000
14.89975 178.000
14.92148 172.000
14.94322 181.000
14.96495 205.000
14.98668 197.000
15.00842 203.000
15.03015 183.000
15.05188 161.000
15.07361 183.000
15.09535 162.000
15.11708 193.000
15.13881 187.000
15.16055 180.000
15.18228 197.000
15.20401 219.000
15.22575 199.000
15.24748 237.000
15.26921 227.000
15.29094 224.000
15.31268 293.000
15.33441 326.000
15.35614 419.000
15.37788 491.000
15.39961 591.000
15.42134 717.000
15.44307 847.000
15.46481 861.000
15.48654 842.000
15.50827 781.000
15.53001 699.000
15.55174 636.000
15.57347 566.000
15.59520 441.000
15.61694 403.000
15.63867 344.000
15.66040 295.000
15.68214 243.000
15.70387 223.000
15.72560 194.000
15.74733 218.000
15.76907 195.000
15.79080 184.000
15.81253 185.000
15.83427 196.000
15.85600 171.000
15.87773 187.000
15.89946 182.000
15.92120 176.000
15.94293 157.000
15.96466 188.000
15.98640 181.000
16.00813 167.000
16.02986 217.000
16.05159 205.000
16.07333 180.000
16.09506 185.000
16.11679 185.000
16.13853 212.000
16.16026 221.000
16.18199 196.000
16.20372 198.000
16.22546 191.000
16.24719 159.000
16.26892 190.000
16.29066 199.000
16.31239 216.000
16.33412 197.000
16.35585 174.000
16.37759 198.000
16.39932 175.000
16.42105 177.000
16.44279 196.000
16.46452 195.000
16.48625 212.000
16.50798 206.000
16.52972 173.000
16.55145 196.000
16.57318 184.000
16.59492 174.000
16.61665 171.000
16.63838 185.000
16.66012 216.000
16.68185 192.000
16.70358 215.000
16.72531 196.000
16.74705 208.000
16.76878 208.000
16.79051 192.000
16.81225 224.000
16.83398 226.000
16.85571 196.000
16.87744 219.000
16.89918 184.000
16.92091 205.000
16.94264 192.000
16.96438 217.000
16.98611 206.000
17.00784 232.000
17.02957 236.000
17.05131 284.000
17.07304 249.000
17.09477 320.000
17.11651 354.000
17.13824 387.000
17.15997 475.000
17.18170 584.000
17.20344 670.000
17.22517 707.000
17.24690 777.000
17.26864 810.000
17.29037 805.000
17.31210 715.000
17.33383 724.000
17.35557 748.000
17.37730 824.000
17.39903 879.000
17.42077 1013.000
17.44250 954.000
17.46423 1000.000
17.48596 892.000
17.50770 823.000
17.52943 689.000
17.55116 585.000
17.57290 456.000
17.59463 419.000
17.61636 385.000
17.63809 330.000
17.65983 286.000
17.68156 257.000
17.70329 282.000
17.72503 229.000
17.74676 259.000
17.76849 204.000
17.79022 219.000
17.81196 229.000
17.83369 223.000
17.85542 257.000
17.87716 238.000
17.89889 228.000
17.92062 240.000
17.94236 213.000
17.96409 242.000
17.98582 235.000
18.00755 238.000
18.02929 234.000
18.05102 206.000
18.07275 217.000
18.09449 226.000
18.11622 206.000
18.13795 220.000
18.15968 204.000
18.18142 217.000
18.20315 232.000
18.22488 222.000
18.24662 233.000
18.26835 235.000
18.29008 246.000
18.31181 227.000
18.33355 237.000
18.35528 211.000
18.37701 223.000
18.39875 249.000
18.42048 209.000
18.44221 234.000
18.46394 217.000
18.48568 220.000
18.50741 243.000
18.52914 243.000
18.55088 237.000
18.57261 209.000
18.59434 231.000
18.61607 196.000
18.63781 261.000
18.65954 234.000
18.68127 245.000
18.70301 241.000
18.72474 230.000
18.74647 215.000
18.76820 259.000
18.78994 272.000
18.81167 244.000
18.83340 222.000
18.85514 265.000
18.87687 247.000
18.89860 262.000
18.92033 256.000
18.94207 216.000
18.96380 246.000
18.98553 270.000
19.00727 264.000
19.02900 262.000
19.05073 240.000
19.07246 250.000
19.09420 239.000
19.11593 291.000
19.13766 247.000
19.15940 260.000
19.18113 270.000
19.20286 233.000
19.22459 257.000
19.24633 273.000
19.26806 269.000
19.28979 260.000
19.31153 275.000
19.33326 278.000
19.35499 285.000
19.37673 273.000
19.39846 270.000
19.42019 305.000
19.44192 294.000
19.46366 275.000
19.48539 297.000
19.50712 319.000
19.52886 300.000
19.55059 286.000
19.57232 281.000
19.59405 280.000
19.61579 328.000
19.63752 320.000
19.65925 335.000
19.68099 348.000
19.70272 396.000
19.72445 513.000
19.74618 642.000
19.76792 825.000
19.78965 933.000
19.81138 1112.000
19.83312 1184.000
19.85485 1191.000
19.87658 1154.000
19.89831 1030.000
19.92005 913.000
19.94178 791.000
19.96351 665.000
19.98525 620.000
20.00698 471.000
20.02871 441.000
20.05044 341.000
20.07218 362.000
20.09391 337.000
20.11564 303.000
20.13738 274.000
20.15911 302.000
20.18084 269.000
20.20257 335.000
20.22431 315.000
20.24604 313.000
20.26777 322.000
20.28951 358.000
20.31124 392.000
20.33297 405.000
20.35470 390.000
20.37644 404.000
20.39817 428.000
20.41990 367.000
20.44164 347.000
20.46337 343.000
20.48510 357.000
20.50683 335.000
20.52857 319.000
20.55030 313.000
20.57203 289.000
20.59377 328.000
20.61550 297.000
20.63723 291.000
20.65897 321.000
20.68070 307.000
20.70243 367.000
20.72416 428.000
20.74590 493.000
20.76763 599.000
20.78936 727.000
20.81110 938.000
20.83283 1072.000
20.85456 1131.000
20.87629 1214.000
20.89803 1196.000
20.91976 1113.000
20.94149 1078.000
20.96323 941.000
20.98496 785.000
21.00669 654.000
21.02842 493.000
21.05016 412.000
21.07189 375.000
21.09362 329.000
21.11536 287.000
21.13709 299.000
21.15882 292.000
21.18055 289.000
21.20229 317.000
21.22402 332.000
21.24575 364.000
21.26749 334.000
21.28922 398.000
21.31095 353.000
21.33268 384.000
21.35442 344.000
21.37615 364.000
21.39788 349.000
21.41962 324.000
21.44135 314.000
21.46308 272.000
21.48481 303.000
21.50655 264.000
21.52828 276.000
21.55001 276.000
21.57175 290.000
21.59348 282.000
21.61521 298.000
21.63694 323.000
21.65868 342.000
21.68041 406.000
21.70214 521.000
21.72388 629.000
21.74561 680.000
21.76734 686.000
21.78907 770.000
21.81081 690.000
21.83254 579.000
21.85427 522.000
21.87601 435.000
21.89774 381.000
21.91947 349.000
21.94120 316.000
21.96294 278.000
21.98467 266.000
22.00640 269.000
22.02814 230.000
22.04987 274.000
22.07160 239.000
22.09334 239.000
22.11507 236.000
22.13680 233.000
22.15853 238.000
22.18027 234.000
22.20200 244.000
22.22373 208.000
22.24547 221.000
22.26720 248.000
22.28893 240.000
22.31066 234.000
22.33240 246.000
22.35413 227.000
22.37586 228.000
22.39760 260.000
22.41933 220.000
22.44106 223.000
22.46279 239.000
22.48453 238.000
22.50626 283.000
22.52799 366.000
22.54973 398.000
22.57146 468.000
22.59319 522.000
22.61492 597.000
22.63666 702.000
22.65839 688.000
22.68012 697.000
22.70186 628.000
22.72359 558.000
22.74532 478.000
22.76705 442.000
22.78879 393.000
22.81052 329.000
22.83225 331.000
22.85399 303.000
22.87572 258.000
22.89745 295.000
22.91918 301.000
22.94092 337.000
22.96265 452.000
22.98438 480.000
23.00612 525.000
23.02785 521.000
23.04958 561.000
23.07131 544.000
23.09305 490.000
23.11478 400.000
23.13651 393.000
23.15825 361.000
23.17998 288.000
23.20171 292.000
23.22344 256.000
23.24518 221.000
23.26691 209.000
23.28864 202.000
23.31038 201.000
23.33211 223.000
23.35384 218.000
23.37558 245.000
23.39731 290.000
23.41904 307.000
23.44077 306.000
23.46251 328.000
23.48424 323.000
23.50597 318.000
23.52771 292.000
23.54944 267.000
23.57117 274.000
23.59290 242.000
23.61464 230.000
23.63637 203.000
23.65810 195.000
23.67984 207.000
23.70157 192.000
23.72330 187.000
23.74503 172.000
23.76677 183.000
23.78850 196.000
23.81023 209.000
23.83197 246.000
23.85370 242.000
23.87543 227.000
23.89716 226.000
23.91890 222.000
23.94063 245.000
23.96236 278.000
23.98410 277.000
24.00583 269.000
24.02756 369.000
24.04929 462.000
24.07103 600.000
24.09276 825.000
24.11449 1103.000
24.13623 1358.000
24.15796 1501.000
24.17969 1653.000
24.20142 1657.000
24.22316 1480.000
24.24489 1372.000
24.26662 1137.000
24.28836 941.000
24.31009 696.000
24.33182 610.000
24.35355 470.000
24.37529 329.000
24.39702 303.000
24.41875 241.000
24.44049 226.000
24.46222 199.000
24.48395 191.000
24.50568 196.000
24.52742 186.000
24.54915 160.000
24.57088 175.000
24.59262 164.000
24.61435 164.000
24.63608 181.000
24.65781 160.000
24.67955 166.000
24.70128 144.000
24.72301 183.000
24.74475 144.000
24.76648 169.000
24.78821 163.000
24.80995 198.000
24.83168 166.000
24.85341 167.000
24.87514 150.000
24.89688 169.000
24.91861 174.000
24.94034 176.000
24.96208 180.000
24.98381 138.000
25.00554 159.000
25.02727 197.000
25.04901 176.000
25.07074 196.000
25.09247 207.000
25.11421 183.000
25.13594 216.000
25.15767 201.000
25.17940 199.000
25.20114 258.000
25.22287 322.000
25.24460 440.000
25.26634 543.000
25.28807 766.000
25.30980 977.000
25.33153 1157.000
25.35327 1307.000
25.37500 1410.000
25.39673 1298.000
25.41847 1206.000
25.44020 1087.000
25.46193 848.000
25.48366 755.000
25.50540 562.000
25.52713 442.000
25.54886 341.000
25.57060 297.000
25.59233 244.000
25.61406 209.000
25.63579 172.000
25.65753 206.000
25.67926 151.000
25.70099 172.000
25.72273 208.000
25.74446 180.000
25.76619 176.000
25.78792 152.000
25.80966 147.000
25.83139 189.000
25.85312 159.000
25.87486 150.000
25.89659 161.000
25.91832 182.000
25.94005 136.000
25.96179 133.000
25.98352 163.000
26.00525 150.000
26.02699 150.000
26.04872 160.000
26.07045 153.000
26.09219 149.000
26.11392 176.000
26.13565 161.000
26.15738 171.000
26.17912 167.000
26.20085 184.000
26.22258 195.000
26.24432 230.000
26.26605 318.000
26.28778 351.000
26.30951 365.000
26.33125 393.000
26.35298 437.000
26.37471 416.000
26.39645 407.000
26.41818 352.000
26.43991 283.000
26.46164 322.000
26.48338 300.000
26.50511 323.000
26.52684 302.000
26.54858 295.000
26.57031 305.000
26.59204 325.000
26.61377 320.000
26.63551 294.000
26.65724 274.000
26.67897 239.000
26.70071 218.000
26.72244 207.000
26.74417 189.000
26.76590 195.000
26.78764 157.000
26.80937 159.000
26.83110 138.000
26.85284 150.000
26.87457 143.000
26.89630 147.000
26.91803 122.000
26.93977 128.000
26.96150 150.000
26.98323 145.000
27.00497 139.000
27.02670 153.000
27.04843 136.000
27.07016 159.000
27.09190 141.000
27.11363 137.000
27.13536 142.000
27.15710 155.000
27.17883 185.000
27.20056 169.000
27.22229 188.000
27.24403 189.000
27.26576 150.000
27.28749 160.000
27.30923 176.000
27.33096 157.000
27.35269 168.000
27.37442 156.000
27.39616 151.000
27.41789 123.000
27.43962 134.000
27.46136 136.000
27.48309 117.000
27.50482 153.000
27.52656 120.000
27.54829 121.000
27.57002 138.000
27.59175 96.000
27.61349 113.000
27.63522 112.000
27.65695 111.000
27.67869 105.000
27.70042 125.000
27.72215 118.000
27.74388 125.000
27.76562 121.000
27.78735 108.000
27.80908 113.000
27.83082 105.000
27.85255 104.000
27.87428 89.000
27.89601 103.000
27.91775 121.000
27.93948 103.000
27.96121 123.000
27.98295 94.000
28.00468 97.000
28.02641 104.000
28.04814 97.000
28.06988 69.000
28.09161 105.000
28.11334 113.000
28.13508 106.000
28.15681 123.000
28.17854 103.000
28.20027 113.000
28.22201 114.000
28.24374 115.000
28.26547 107.000
28.28721 106.000
28.30894 98.000
28.33067 112.000
28.35240 129.000
28.37414 138.000
28.39587 149.000
28.41760 134.000
28.43934 112.000
28.46107 117.000
28.48280 116.000
28.50453 128.000
28.52627 125.000
28.54800 101.000
28.56973 117.000
28.59147 118.000
28.61320 99.000
28.63493 88.000
28.65666 99.000
28.67840 108.000
28.70013 95.000
28.72186 99.000
28.74360 105.000
28.76533 85.000
28.78706 109.000
28.80880 93.000
28.83053 108.000
28.85226 97.000
28.87399 110.000
28.89573 86.000
28.91746 98.000
28.93919 97.000
28.96093 94.000
28.98266 87.000
29.00439 96.000
29.02612 104.000
29.04786 93.000
29.06959 105.000
29.09132 98.000
29.11306 112.000
29.13479 85.000
29.15652 78.000
29.17825 101.000
29.19999 97.000
29.22172 86.000
29.24345 94.000
29.26519 94.000
29.28692 91.000
29.30865 95.000
29.33038 98.000
29.35212 94.000
29.37385 124.000
29.39558 135.000
29.41732 132.000
29.43905 112.000
29.46078 141.000
29.48251 115.000
29.50425 116.000
29.52598 120.000
29.54771 105.000
29.56945 104.000
29.59118 95.000
29.61291 94.000
29.63464 101.000
29.65638 94.000
29.67811 107.000
29.69984 106.000
29.72158 102.000
29.74331 86.000
29.76504 100.000
29.78677 96.000
29.80851 96.000
29.83024 104.000
29.85197 97.000
29.87371 100.000
29.89544 97.000
29.91717 104.000
29.93890 85.000
29.96064 107.000
29.98237 104.000
30.00410 117.000
30.02584 113.000
30.04757 147.000
30.06930 135.000
30.09103 124.000
30.11277 112.000
30.13450 91.000
30.15623 110.000
30.17797 114.000
30.19970 111.000
30.22143 112.000
30.24317 120.000
30.26490 126.000
30.28663 146.000
30.30836 143.000
30.33010 148.000
30.35183 156.000
30.37356 130.000
30.39530 150.000
30.41703 157.000
30.43876 123.000
30.46049 146.000
30.48223 110.000
30.50396 117.000
30.52569 111.000
30.54743 125.000
30.56916 108.000
30.59089 88.000
30.61262 93.000
30.63436 91.000
30.65609 80.000
30.67782 93.000
30.69956 83.000
30.72129 93.000
30.74302 90.000
30.76475 97.000
30.78649 92.000
30.80822 77.000
30.82995 81.000
30.85169 82.000
30.87342 84.000
30.89515 97.000
30.91688 71.000
30.93862 96.000
30.96035 86.000
30.98208 87.000
31.00382 60.000
31.02555 79.000
31.04728 69.000
31.06901 79.000
31.09075 70.000
31.11248 70.000
31.13421 60.000
31.15595 78.000
31.17768 79.000
31.19941 72.000
31.22114 69.000
31.24288 77.000
31.26461 78.000
31.28634 72.000
31.30808 83.000
31.32981 87.000
31.35154 65.000
31.37327 77.000
31.39501 85.000
31.41674 62.000
31.43847 66.000
31.46021 59.000
31.48194 79.000
31.50367 72.000
31.52541 71.000
31.54714 73.000
31.56887 65.000
31.59060 81.000
31.61234 78.000
31.63407 87.000
31.65580 69.000
31.67754 50.000
31.69927 74.000
31.72100 71.000
31.74273 86.000
31.76447 67.000
31.78620 67.000
31.80793 76.000
31.82967 54.000
31.85140 82.000
31.87313 68.000
31.89486 66.000
31.91660 76.000
31.93833 82.000
31.96006 61.000
31.98180 75.000
32.00353 68.000
32.02526 54.000
32.04699 66.000
32.06873 68.000
32.09046 67.000
32.11219 74.000
32.13393 63.000
32.15566 60.000
32.17739 84.000
32.19912 66.000
32.22086 89.000
32.24259 74.000
32.26432 81.000
32.28606 53.000
32.30779 82.000
32.32952 71.000
32.35125 84.000
32.37299 81.000
32.39472 66.000
32.41645 72.000
32.43819 75.000
32.45992 82.000
32.48165 66.000
32.50338 74.000
32.52512 68.000
32.54685 79.000
32.56858 78.000
32.59032 77.000
32.61205 66.000
32.63378 71.000
32.65551 70.000
32.67725 66.000
32.69898 77.000
32.72071 97.000
32.74245 95.000
32.76418 80.000
32.78591 65.000
32.80764 114.000
32.82938 105.000
32.85111 95.000
32.87284 92.000
32.89458 116.000
32.91631 109.000
32.93804 78.000
32.95978 76.000
32.98151 88.000
33.00324 72.000
33.02497 76.000
33.04671 68.000
33.06844 59.000
33.09017 66.000
33.11191 63.000
33.13364 63.000
33.15537 65.000
33.17710 60.000
33.19884 65.000
33.22057 66.000
33.24230 59.000
33.26404 54.000
33.28577 53.000
33.30750 47.000
33.32923 67.000
33.35097 50.000
33.37270 57.000
33.39443 42.000
33.41617 69.000
33.43790 49.000
33.45963 66.000
33.48136 52.000
33.50310 64.000
33.52483 55.000
33.54656 69.000
33.56830 71.000
33.59003 70.000
33.61176 65.000
33.63349 79.000
33.65523 83.000
33.67696 78.000
33.69869 74.000
33.72043 68.000
33.74216 81.000
33.76389 66.000
33.78562 80.000
33.80736 70.000
33.82909 72.000
33.85082 79.000
33.87256 67.000
33.89429 76.000
33.91602 54.000
33.93775 69.000
33.95949 49.000
33.98122 61.000
34.00295 57.000
34.02469 64.000
34.04642 62.000
34.06815 79.000
34.08988 56.000
34.11162 84.000
34.13335 79.000
34.15508 94.000
34.17682 67.000
34.19855 81.000
34.22028 92.000
34.24202 89.000
34.26375 85.000
34.28548 85.000
34.30721 72.000
34.32895 88.000
34.35068 79.000
34.37241 71.000
34.39415 71.000
34.41588 77.000
34.43761 69.000
34.45934 65.000
34.48108 74.000
34.50281 69.000
34.52454 77.000
34.54628 84.000
34.56801 69.000
34.58974 71.000
34.61147 60.000
34.63321 74.000
34.65494 62.000
34.67667 65.000
34.69841 78.000
34.72014 60.000
34.74187 60.000
34.76360 67.000
34.78534 77.000
34.80707 68.000
34.82880 63.000
34.85054 62.000
34.87227 73.000
34.89400 54.000
34.91573 64.000
34.93747 64.000
34.95920 74.000
34.98093 56.000
35.00267 76.000
35.02440 86.000
35.04613 65.000
35.06786 66.000
35.08960 71.000
35.11133 62.000
35.13306 66.000
35.15480 89.000
35.17653 85.000
35.19826 83.000
35.21999 73.000
35.24173 44.000
35.26346 64.000
35.28519 66.000
35.30693 60.000
35.32866 74.000
35.35039 57.000
35.37212 61.000
35.39386 74.000
35.41559 72.000
35.43732 45.000
35.45906 66.000
35.48079 57.000
35.50252 78.000
35.52425 82.000
35.54599 72.000
35.56772 74.000
35.58945 97.000
35.61119 97.000
35.63292 98.000
35.65465 103.000
35.67639 64.000
35.69812 78.000
35.71985 67.000
35.74158 79.000
35.76332 71.000
35.78505 68.000
35.80678 65.000
35.82852 48.000
35.85025 64.000
35.87198 62.000
35.89371 53.000
35.91545 64.000
35.93718 62.000
35.95891 44.000
35.98065 63.000
36.00238 61.000
36.02411 66.000
36.04584 80.000
36.06758 64.000
36.08931 57.000
36.11104 49.000
36.13278 62.000
36.15451 63.000
36.17624 65.000
36.19797 53.000
36.21971 82.000
36.24144 64.000
36.26317 65.000
36.28491 86.000
36.30664 79.000
36.32837 88.000
36.35010 64.000
36.37184 61.000
36.39357 75.000
36.41530 78.000
36.43704 62.000
36.45877 46.000
36.48050 50.000
36.50223 70.000
36.52397 68.000
36.54570 59.000
36.56743 57.000
36.58917 59.000
36.61090 60.000
36.63263 53.000
36.65436 77.000
36.67610 55.000
36.69783 43.000
36.71956 65.000
36.74130 52.000
36.76303 62.000
36.78476 68.000
36.80649 58.000
36.82823 51.000
36.84996 58.000
36.87169 64.000
36.89343 60.000
36.91516 70.000
36.93689 62.000
36.95863 82.000
36.98036 76.000
37.00209 83.000
37.02382 85.000
37.04556 85.000
37.06729 87.000
37.08902 57.000
37.11076 85.000
37.13249 80.000
37.15422 88.000
37.17595 62.000
37.19769 56.000
37.21942 55.000
37.24115 67.000
37.26289 50.000
37.28462 51.000
37.30635 53.000
37.32808 55.000
37.34982 62.000
37.37155 55.000
37.39328 57.000
37.41502 63.000
37.43675 47.000
37.45848 46.000
37.48021 76.000
37.50195 62.000
37.52368 68.000
37.54541 58.000
37.56715 53.000
37.58888 60.000
37.61061 73.000
37.63234 61.000
37.65408 73.000
37.67581 53.000
37.69754 60.000
37.71928 67.000
37.74101 65.000
37.76274 57.000
37.78447 63.000
37.80621 71.000
37.82794 86.000
37.84967 84.000
37.87141 64.000
37.89314 94.000
37.91487 72.000
37.93660 71.000
37.95834 69.000
37.98007 67.000
38.00180 50.000
38.02354 69.000
38.04527 62.000
38.06700 57.000
38.08873 60.000
38.11047 65.000
38.13220 63.000
38.15393 51.000
38.17567 62.000
38.19740 66.000
38.21913 52.000
38.24086 62.000
38.26260 53.000
38.28433 53.000
38.30606 69.000
38.32780 60.000
38.34953 66.000
38.37126 66.000
38.39300 74.000
38.41473 68.000
38.43646 70.000
38.45819 66.000
38.47993 89.000
38.50166 70.000
38.52339 99.000
38.54513 100.000
38.56686 147.000
38.58859 120.000
38.61032 134.000
38.63206 141.000
38.65379 138.000
38.67552 134.000
38.69726 144.000
38.71899 116.000
38.74072 104.000
38.76245 103.000
38.78419 94.000
38.80592 86.000
38.82765 71.000
38.84939 68.000
38.87112 71.000
38.89285 61.000
38.91458 60.000
38.93632 63.000
38.95805 52.000
38.97978 74.000
39.00152 53.000
39.02325 62.000
39.04498 66.000
39.06671 87.000
39.08845 69.000
39.11018 70.000
39.13191 72.000
39.15365 68.000
39.17538 73.000
39.19711 77.000
39.21884 76.000
39.24058 63.000
39.26231 73.000
39.28404 78.000
39.30578 64.000
39.32751 56.000
39.34924 65.000
39.37097 86.000
39.39271 75.000
39.41444 85.000
39.43617 122.000
39.45791 124.000
39.47964 99.000
39.50137 123.000
39.52310 103.000
39.54484 112.000
39.56657 109.000
39.58830 96.000
39.61004 95.000
39.63177 88.000
39.65350 68.000
39.67524 73.000
39.69697 62.000
39.71870 55.000
39.74043 46.000
39.76217 67.000
39.78390 65.000
39.80563 51.000
39.82737 55.000
39.84910 60.000
39.87083 55.000
39.89256 43.000
39.91430 52.000
39.93603 56.000
39.95776 48.000
39.97950 36.000
40.00123 64.000
40.02296 51.000
40.04469 47.000
40.06643 52.000
40.08816 58.000
40.10989 54.000
40.13163 47.000
40.15336 46.000
40.17509 58.000
40.19682 49.000
40.21856 46.000
40.24029 46.000
40.26202 46.000
40.28376 52.000
40.30549 52.000
40.32722 48.000
40.34895 50.000
40.37069 57.000
40.39242 52.000
40.41415 56.000
40.43589 50.000
40.45762 57.000
40.47935 45.000
40.50108 48.000
40.52282 50.000
40.54455 48.000
40.56628 39.000
40.58802 51.000
40.60975 54.000
40.63148 58.000
40.65321 53.000
40.67495 48.000
40.69668 67.000
40.71841 60.000
40.74015 66.000
40.76188 59.000
40.78361 78.000
40.80534 71.000
40.82708 57.000
40.84881 60.000
40.87054 76.000
40.89228 59.000
40.91401 50.000
40.93574 42.000
40.95747 55.000
40.97921 53.000
41.00094 42.000
41.02267 43.000
41.04441 47.000
41.06614 52.000
41.08787 33.000
41.10961 55.000
41.13134 57.000
41.15307 54.000
41.17480 43.000
41.19654 43.000
41.21827 44.000
41.24000 37.000
41.26174 55.000
41.28347 44.000
41.30520 59.000
41.32693 58.000
41.34867 55.000
41.37040 59.000
41.39213 51.000
41.41387 53.000
41.43560 67.000
41.45733 59.000
41.47906 82.000
41.50080 71.000
41.52253 73.000
41.54426 78.000
41.56600 84.000
41.58773 78.000
41.60946 68.000
41.63119 72.000
41.65293 77.000
41.67466 86.000
41.69639 73.000
41.71813 77.000
41.73986 63.000
41.76159 74.000
41.78332 50.000
41.80506 58.000
41.82679 55.000
41.84852 54.000
41.87026 50.000
41.89199 55.000
41.91372 43.000
41.93545 45.000
41.95719 46.000
41.97892 54.000
42.00065 51.000
42.02239 46.000
42.04412 45.000
42.06585 58.000
42.08758 53.000
42.10932 45.000
42.13105 51.000
42.15278 53.000
42.17452 58.000
42.19625 44.000
42.21798 64.000
42.23971 42.000
42.26145 51.000
42.28318 45.000
42.30491 55.000
42.32665 50.000
42.34838 51.000
42.37011 37.000
42.39185 44.000
42.41358 46.000
42.43531 50.000
42.45704 67.000
42.47878 49.000
42.50051 63.000
42.52224 41.000
42.54398 59.000
42.56571 42.000
42.58744 60.000
42.60917 53.000
42.63091 52.000
42.65264 46.000
42.67437 44.000
42.69611 43.000
42.71784 52.000
42.73957 35.000
42.76130 52.000
42.78304 44.000
42.80477 43.000
42.82650 53.000
42.84824 63.000
42.86997 57.000
42.89170 70.000
42.91343 60.000
42.93517 73.000
42.95690 60.000
42.97863 60.000
43.00037 69.000
43.02210 64.000
43.04383 71.000
43.06556 62.000
43.08730 62.000
43.10903 63.000
43.13076 56.000
43.15250 53.000
43.17423 37.000
43.19596 49.000
43.21769 60.000
43.23943 48.000
43.26116 38.000
43.28289 51.000
43.30463 40.000
43.32636 44.000
43.34809 48.000
43.36982 33.000
43.39156 50.000
43.41329 57.000
43.43502 51.000
43.45676 61.000
43.47849 58.000
43.50022 44.000
43.52195 63.000
43.54369 58.000
43.56542 53.000
43.58715 60.000
43.60889 51.000
43.63062 59.000
43.65235 59.000
43.67408 49.000
43.69582 47.000
43.71755 54.000
43.73928 50.000
43.76102 43.000
43.78275 52.000
43.80448 46.000
43.82622 52.000
43.84795 40.000
43.86968 41.000
43.89141 66.000
43.91315 46.000
43.93488 56.000
43.95661 56.000
43.97835 61.000
44.00008 56.000
44.02181 56.000
44.04354 45.000
44.06528 47.000
44.08701 49.000
44.10874 39.000
44.13048 56.000
44.15221 58.000
44.17394 47.000
44.19567 50.000
44.21741 45.000
44.23914 58.000
44.26087 45.000
44.28261 44.000
44.30434 47.000
44.32607 55.000
44.34780 47.000
44.36954 53.000
44.39127 71.000
44.41300 53.000
44.43474 82.000
44.45647 61.000
44.47820 55.000
44.49993 43.000
44.52167 44.000
44.54340 51.000
44.56513 47.000
44.58687 39.000
44.60860 48.000
44.63033 53.000
44.65206 57.000
44.67380 60.000
44.69553 38.000
44.71726 41.000
44.73900 50.000
44.76073 48.000
44.78246 36.000
44.80419 55.000
44.82593 41.000
44.84766 39.000
44.86939 57.000
44.89113 57.000
44.91286 60.000
44.93459 43.000
44.95632 57.000
44.97806 50.000
44.99979 50.000
