5.01087 23.000
5.03260 39.000
5.05433 30.000
5.07607 27.000
5.09780 23.000
5.11953 21.000
5.14126 30.000
5.16300 21.000
5.18473 33.000
5.20646 34.000
5.22820 18.000
5.24993 28.000
5.27166 24.000
5.29339 28.000
5.31513 31.000
5.33686 30.000
5.35859 28.000
5.38033 38.000
5.40206 31.000
5.42379 46.000
5.44552 37.000
5.46726 34.000
5.48899 28.000
5.51072 30.000
5.53246 33.000
5.55419 39.000
5.57592 32.000
5.59765 25.000
5.61939 21.000
5.64112 20.000
5.66285 25.000
5.68459 38.000
5.70632 45.000
5.72805 37.000
5.74978 26.000
5.77152 27.000
5.79325 43.000
5.81498 33.000
5.83672 33.000
5.85845 36.000
5.88018 39.000
5.90191 47.000
5.92365 29.000
5.94538 38.000
5.96711 39.000
5.98885 53.000
6.01058 38.000
6.03231 37.000
6.05404 41.000
6.07578 37.000
6.09751 38.000
6.11924 41.000
6.14098 45.000
6.16271 44.000
6.18444 47.000
6.20617 42.000
6.22791 52.000
6.24964 41.000
6.27137 46.000
6.29311 43.000
6.31484 35.000
6.33657 54.000
6.35831 40.000
6.38004 56.000
6.40177 44.000
6.42350 39.000
6.44524 47.000
6.46697 46.000
6.48870 38.000
6.51044 45.000
6.53217 38.000
6.55390 59.000
6.57563 47.000
6.59737 46.000
6.61910 46.000
6.64083 38.000
6.66257 58.000
6.68430 50.000
6.70603 34.000
6.72776 40.000
6.74950 44.000
6.77123 43.000
6.79296 47.000
6.81470 52.000
6.83643 52.000
6.85816 50.000
6.87989 45.000
6.90163 50.000
6.92336 40.000
6.94509 50.000
6.96683 45.000
6.98856 49.000
7.01029 50.000
7.03202 63.000
7.05376 48.000
7.07549 48.000
7.09722 63.000
7.11896 51.000
7.14069 51.000
7.16242 49.000
7.18415 48.000
7.20589 39.000
7.22762 36.000
7.24935 55.000
7.27109 46.000
7.29282 58.000
7.31455 55.000
7.33628 66.000
7.35802 46.000
7.37975 65.000
7.40148 61.000
7.42322 52.000
7.44495 53.000
7.46668 47.000
7.48841 54.000
7.51015 68.000
7.53188 49.000
7.55361 66.000
7.57535 59.000
7.59708 46.000
7.61881 51.000
7.64054 37.000
7.66228 51.000
7.68401 47.000
7.70574 65.000
7.72748 56.000
7.74921 52.000
7.77094 56.000
7.79268 58.000
7.81441 61.000
7.83614 53.000
7.85787 50.000
7.87961 58.000
7.90134 69.000
7.92307 78.000
7.94481 57.000
7.96654 57.000
7.98827 59.000
8.01000 49.000
8.03174 52.000
8.05347 56.000
8.07520 55.000
8.09694 64.000
8.11867 60.000
8.14040 57.000
8.16213 55.000
8.18387 59.000
8.20560 62.000
8.22733 64.000
8.24907 74.000
8.27080 59.000
8.29253 63.000
8.31426 53.000
8.33600 64.000
8.35773 64.000
8.37946 69.000
8.40120 81.000
8.42293 72.000
8.44466 108.000
8.46639 95.000
8.48813 102.000
8.50986 93.000
8.53159 115.000
8.55333 131.000
8.57506 137.000
8.59679 153.000
8.61852 149.000
8.64026 168.000
8.66199 168.000
8.68372 151.000
8.70546 167.000
8.72719 219.000
8.74892 200.000
8.77065 208.000
8.79239 229.000
8.81412 246.000
8.83585 173.000
8.85759 137.000
8.87932 89.000
8.90105 71.000
8.92278 70.000
8.94452 76.000
8.96625 50.000
8.98798 47.000
9.00972 64.000
9.03145 63.000
9.05318 62.000
9.07492 59.000
9.09665 66.000
9.11838 59.000
9.14011 54.000
9.16185 53.000
9.18358 61.000
9.20531 46.000
9.22705 52.000
9.24878 57.000
9.27051 70.000
9.29224 61.000
9.31398 51.000
9.33571 59.000
9.35744 80.000
9.37918 63.000
9.40091 53.000
9.42264 61.000
9.44437 56.000
9.46611 57.000
9.48784 68.000
9.50957 62.000
9.53131 55.000
9.55304 48.000
9.57477 70.000
9.59650 71.000
9.61824 57.000
9.63997 64.000
9.66170 61.000
9.68344 77.000
9.70517 70.000
9.72690 75.000
9.74863 55.000
9.77037 69.000
9.79210 60.000
9.81383 59.000
9.83557 69.000
9.85730 55.000
9.87903 56.000
9.90076 59.000
9.92250 56.000
9.94423 65.000
9.96596 61.000
9.98770 55.000
10.00943 60.000
10.03116 63.000
10.05289 64.000
10.07463 49.000
10.09636 65.000
10.11809 63.000
10.13983 71.000
10.16156 72.000
10.18329 61.000
10.20502 47.000
10.22676 54.000
10.24849 68.000
10.27022 61.000
10.29196 40.000
10.31369 60.000
10.33542 57.000
10.35715 66.000
10.37889 64.000
10.40062 50.000
10.42235 52.000
10.44409 53.000
10.46582 61.000
10.48755 59.000
10.50929 51.000
10.53102 51.000
10.55275 63.000
10.57448 60.000
10.59622 51.000
10.61795 50.000
10.63968 61.000
10.66142 54.000
10.68315 68.000
10.70488 52.000
10.72661 62.000
10.74835 49.000
10.77008 63.000
10.79181 43.000
10.81355 56.000
10.83528 51.000
10.85701 56.000
10.87874 76.000
10.90048 59.000
10.92221 50.000
10.94394 70.000
10.96568 67.000
10.98741 67.000
11.00914 61.000
11.03087 65.000
11.05261 67.000
11.07434 76.000
11.09607 51.000
11.11781 64.000
11.13954 77.000
11.16127 76.000
11.18300 63.000
11.20474 62.000
11.22647 57.000
11.24820 53.000
11.26994 60.000
11.29167 56.000
11.31340 57.000
11.33513 68.000
11.35687 66.000
11.37860 62.000
11.40033 65.000
11.42207 56.000
11.44380 52.000
11.46553 55.000
11.48726 44.000
11.50900 57.000
11.53073 54.000
11.55246 52.000
11.57420 57.000
11.59593 55.000
11.61766 68.000
11.63939 59.000
11.66113 45.000
11.68286 51.000
11.70459 47.000
11.72633 50.000
11.74806 49.000
11.76979 57.000
11.79153 54.000
11.81326 58.000
11.83499 68.000
11.85672 60.000
11.87846 63.000
11.90019 54.000
11.92192 42.000
11.94366 40.000
11.96539 51.000
11.98712 65.000
12.00885 56.000
12.03059 44.000
12.05232 58.000
12.07405 54.000
12.09579 53.000
12.11752 54.000
12.13925 42.000
12.16098 44.000
12.18272 52.000
12.20445 52.000
12.22618 44.000
12.24792 54.000
12.26965 52.000
12.29138 45.000
12.31311 44.000
12.33485 51.000
12.35658 36.000
12.37831 60.000
12.40005 56.000
12.42178 56.000
12.44351 62.000
12.46524 59.000
12.48698 54.000
12.50871 54.000
12.53044 43.000
12.55218 65.000
12.57391 56.000
12.59564 54.000
12.61737 57.000
12.63911 52.000
12.66084 60.000
12.68257 51.000
12.70431 61.000
12.72604 52.000
12.74777 45.000
12.76950 62.000
12.79124 84.000
12.81297 49.000
12.83470 48.000
12.85644 65.000
12.87817 59.000
12.89990 54.000
12.92163 50.000
12.94337 55.000
12.96510 53.000
12.98683 59.000
13.00857 76.000
13.03030 54.000
13.05203 56.000
13.07376 58.000
13.09550 57.000
13.11723 61.000
13.13896 39.000
13.16070 76.000
13.18243 69.000
13.20416 63.000
13.22590 49.000
13.24763 51.000
13.26936 54.000
13.29109 48.000
13.31283 38.000
13.33456 48.000
13.35629 42.000
13.37803 47.000
13.39976 47.000
13.42149 32.000
13.44322 62.000
13.46496 53.000
13.48669 60.000
13.50842 61.000
13.53016 64.000
13.55189 57.000
13.57362 54.000
13.59535 66.000
13.61709 59.000
13.63882 55.000
13.66055 41.000
13.68229 64.000
13.70402 54.000
13.72575 71.000
13.74748 70.000
13.76922 51.000
13.79095 56.000
13.81268 58.000
13.83442 60.000
13.85615 35.000
13.87788 41.000
13.89961 44.000
13.92135 49.000
13.94308 44.000
13.96481 43.000
13.98655 36.000
14.00828 40.000
14.03001 42.000
14.05174 53.000
14.07348 56.000
14.09521 41.000
14.11694 51.000
14.13868 46.000
14.16041 41.000
14.18214 46.000
14.20387 56.000
14.22561 49.000
14.24734 42.000
14.26907 53.000
14.29081 42.000
14.31254 34.000
14.33427 49.000
14.35600 44.000
14.37774 53.000
14.39947 41.000
14.42120 47.000
14.44294 59.000
14.46467 45.000
14.48640 50.000
14.50814 52.000
14.52987 43.000
14.55160 58.000
14.57333 40.000
14.59507 32.000
14.61680 51.000
14.63853 59.000
14.66027 57.000
14.68200 54.000
14.70373 46.000
14.72546 47.000
14.74720 50.000
14.76893 43.000
14.79066 44.000
14.81240 44.000
14.83413 35.000
14.85586 62.000
14.87759 51.000
14.89933 47.000
14.92106 58.000
14.94279 47.000
14.96453 46.000
14.98626 42.000
15.00799 47.000
15.02972 49.000
15.05146 56.000
15.07319 40.000
15.09492 37.000
15.11666 63.000
15.13839 57.000
15.16012 63.000
15.18185 61.000
15.20359 69.000
15.22532 74.000
15.24705 78.000
15.26879 82.000
15.29052 95.000
15.31225 131.000
15.33398 112.000
15.35572 161.000
15.37745 202.000
15.39918 236.000
15.42092 268.000
15.44265 312.000
15.46438 381.000
15.48611 410.000
15.50785 423.000
15.52958 456.000
15.55131 508.000
15.57305 560.000
15.59478 589.000
15.61651 672.000
15.63824 612.000
15.65998 605.000
15.68171 563.000
15.70344 440.000
15.72518 377.000
15.74691 167.000
15.76864 88.000
15.79037 66.000
15.81211 58.000
15.83384 52.000
15.85557 56.000
15.87731 58.000
15.89904 54.000
15.92077 74.000
15.94251 53.000
15.96424 63.000
15.98597 43.000
16.00770 47.000
16.02944 46.000
16.05117 62.000
16.07290 57.000
16.09464 69.000
16.11637 46.000
16.13810 58.000
16.15983 46.000
16.18157 58.000
16.20330 59.000
16.22503 43.000
16.24677 54.000
16.26850 47.000
16.29023 52.000
16.31196 44.000
16.33370 39.000
16.35543 51.000
16.37716 40.000
16.39890 42.000
16.42063 45.000
16.44236 45.000
16.46409 44.000
16.48583 44.000
16.50756 50.000
16.52929 71.000
16.55103 48.000
16.57276 51.000
16.59449 50.000
16.61622 48.000
16.63796 62.000
16.65969 50.000
16.68142 53.000
16.70316 48.000
16.72489 44.000
16.74662 44.000
16.76835 47.000
16.79009 64.000
16.81182 51.000
16.83355 58.000
16.85529 66.000
16.87702 63.000
16.89875 46.000
16.92048 60.000
16.94222 65.000
16.96395 71.000
16.98568 74.000
17.00742 92.000
17.02915 78.000
17.05088 83.000
17.07261 109.000
17.09435 91.000
17.11608 120.000
17.13781 128.000
17.15955 165.000
17.18128 168.000
17.20301 192.000
17.22475 215.000
17.24648 287.000
17.26821 306.000
17.28994 365.000
17.31168 453.000
17.33341 572.000
17.35514 682.000
17.37688 763.000
17.39861 774.000
17.42034 651.000
17.44207 534.000
17.46381 382.000
17.48554 302.000
17.50727 285.000
17.52901 320.000
17.55074 439.000
17.57247 455.000
17.59420 432.000
17.61594 328.000
17.63767 261.000
17.65940 165.000
17.68114 122.000
17.70287 81.000
17.72460 71.000
17.74633 58.000
17.76807 62.000
17.78980 65.000
17.81153 50.000
17.83327 59.000
17.85500 63.000
17.87673 45.000
17.89846 45.000
17.92020 52.000
17.94193 59.000
17.96366 64.000
17.98540 60.000
18.00713 59.000
18.02886 56.000
18.05059 47.000
18.07233 53.000
18.09406 53.000
18.11579 41.000
18.13753 39.000
18.15926 46.000
18.18099 55.000
18.20272 42.000
18.22446 47.000
18.24619 52.000
18.26792 50.000
18.28966 45.000
18.31139 57.000
18.33312 51.000
18.35485 51.000
18.37659 48.000
18.39832 50.000
18.42005 47.000
18.44179 46.000
18.46352 60.000
18.48525 37.000
18.50698 51.000
18.52872 44.000
18.55045 46.000
18.57218 54.000
18.59392 54.000
18.61565 48.000
18.63738 60.000
18.65912 45.000
18.68085 51.000
18.70258 69.000
18.72431 47.000
18.74605 51.000
18.76778 49.000
18.78951 41.000
18.81125 48.000
18.83298 48.000
18.85471 54.000
18.87644 47.000
18.89818 54.000
18.91991 54.000
18.94164 59.000
18.96338 65.000
18.98511 64.000
19.00684 42.000
19.02857 53.000
19.05031 48.000
19.07204 51.000
19.09377 64.000
19.11551 53.000
19.13724 51.000
19.15897 45.000
19.18070 50.000
19.20244 45.000
19.22417 34.000
19.24590 56.000
19.26764 43.000
19.28937 48.000
19.31110 57.000
19.33283 63.000
19.35457 63.000
19.37630 54.000
19.39803 66.000
19.41977 57.000
19.44150 64.000
19.46323 54.000
19.48496 73.000
19.50670 67.000
19.52843 78.000
19.55016 68.000
19.57190 72.000
19.59363 53.000
19.61536 75.000
19.63709 71.000
19.65883 91.000
19.68056 102.000
19.70229 93.000
19.72403 132.000
19.74576 160.000
19.76749 159.000
19.78922 206.000
19.81096 240.000
19.83269 301.000
19.85442 334.000
19.87616 416.000
19.89789 454.000
19.91962 492.000
19.94136 610.000
19.96309 597.000
19.98482 596.000
20.00655 589.000
20.02829 524.000
20.05002 447.000
20.07175 369.000
20.09349 284.000
20.11522 174.000
20.13695 128.000
20.15868 109.000
20.18042 94.000
20.20215 78.000
20.22388 75.000
20.24562 72.000
20.26735 99.000
20.28908 90.000
20.31081 86.000
20.33255 101.000
20.35428 116.000
20.37601 125.000
20.39775 144.000
20.41948 170.000
20.44121 179.000
20.46294 138.000
20.48468 145.000
20.50641 155.000
20.52814 120.000
20.54988 133.000
20.57161 100.000
20.59334 100.000
20.61507 80.000
20.63681 76.000
20.65854 77.000
20.68027 86.000
20.70201 125.000
20.72374 149.000
20.74547 203.000
20.76720 221.000
20.78894 283.000
20.81067 290.000
20.83240 274.000
20.85414 324.000
20.87587 347.000
20.89760 415.000
20.91933 387.000
20.94107 379.000
20.96280 360.000
20.98453 473.000
21.00627 587.000
21.02800 459.000
21.04973 370.000
21.07146 261.000
21.09320 180.000
21.11493 135.000
21.13666 124.000
21.15840 108.000
21.18013 112.000
21.20186 103.000
21.22359 94.000
21.24533 76.000
21.26706 93.000
21.28879 94.000
21.31053 111.000
21.33226 131.000
21.35399 162.000
21.37573 179.000
21.39746 174.000
21.41919 175.000
21.44092 156.000
21.46266 169.000
21.48439 160.000
21.50612 124.000
21.52786 92.000
21.54959 90.000
21.57132 81.000
21.59305 86.000
21.61479 91.000
21.63652 76.000
21.65825 87.000
21.67999 100.000
21.70172 114.000
21.72345 150.000
21.74518 172.000
21.76692 204.000
21.78865 226.000
21.81038 241.000
21.83212 295.000
21.85385 329.000
21.87558 373.000
21.89731 384.000
21.91905 391.000
21.94078 293.000
21.96251 188.000
21.98425 139.000
22.00598 103.000
22.02771 73.000
22.04944 57.000
22.07118 83.000
22.09291 59.000
22.11464 64.000
22.13638 62.000
22.15811 54.000
22.17984 68.000
22.20157 63.000
22.22331 59.000
22.24504 57.000
22.26677 52.000
22.28851 55.000
22.31024 62.000
22.33197 62.000
22.35370 73.000
22.37544 59.000
22.39717 73.000
22.41890 64.000
22.44064 78.000
22.46237 81.000
22.48410 84.000
22.50583 94.000
22.52757 121.000
22.54930 149.000
22.57103 162.000
22.59277 184.000
22.61450 232.000
22.63623 293.000
22.65797 309.000
22.67970 342.000
22.70143 360.000
22.72316 392.000
22.74490 312.000
22.76663 393.000
22.78836 326.000
22.81010 243.000
22.83183 236.000
22.85356 153.000
22.87529 169.000
22.89703 163.000
22.91876 139.000
22.94049 125.000
22.96223 139.000
22.98396 144.000
23.00569 159.000
23.02742 178.000
23.04916 221.000
23.07089 322.000
23.09262 351.000
23.11436 466.000
23.13609 433.000
23.15782 495.000
23.17955 452.000
23.20129 380.000
23.22302 291.000
23.24475 212.000
23.26649 174.000
23.28822 123.000
23.30995 96.000
23.33168 104.000
23.35342 113.000
23.37515 126.000
23.39688 119.000
23.41862 114.000
23.44035 126.000
23.46208 136.000
23.48381 182.000
23.50555 218.000
23.52728 197.000
23.54901 187.000
23.57075 189.000
23.59248 170.000
23.61421 155.000
23.63594 142.000
23.65768 117.000
23.67941 110.000
23.70114 107.000
23.72288 102.000
23.74461 68.000
23.76634 72.000
23.78807 97.000
23.80981 82.000
23.83154 92.000
23.85327 95.000
23.87501 130.000
23.89674 129.000
23.91847 129.000
23.94020 145.000
23.96194 155.000
23.98367 152.000
24.00540 134.000
24.02714 174.000
24.04887 202.000
24.07060 239.000
24.09234 356.000
24.11407 507.000
24.13580 671.000
24.15753 794.000
24.17927 1000.000
24.20100 1227.000
24.22273 1630.000
24.24447 1795.000
24.26620 1791.000
24.28793 1598.000
24.30966 1532.000
24.33140 1399.000
24.35313 1101.000
24.37486 897.000
24.39660 686.000
24.41833 458.000
24.44006 330.000
24.46179 213.000
24.48353 118.000
24.50526 100.000
24.52699 97.000
24.54873 93.000
24.57046 91.000
24.59219 92.000
24.61392 107.000
24.63566 68.000
24.65739 100.000
24.67912 81.000
24.70086 78.000
24.72259 92.000
24.74432 80.000
24.76605 87.000
24.78779 79.000
24.80952 61.000
24.83125 81.000
24.85299 91.000
24.87472 88.000
24.89645 73.000
24.91818 81.000
24.93992 69.000
24.96165 73.000
24.98338 73.000
25.00512 66.000
25.02685 74.000
25.04858 83.000
25.07031 78.000
25.09205 72.000
25.11378 76.000
25.13551 90.000
25.15725 105.000
25.17898 98.000
25.20071 123.000
25.22244 166.000
25.24418 181.000
25.26591 244.000
25.28764 261.000
25.30938 420.000
25.33111 531.000
25.35284 694.000
25.37458 1019.000
25.39631 1211.000
25.41804 1314.000
25.43977 1392.000
25.46151 1466.000
25.48324 1475.000
25.50497 1311.000
25.52671 1041.000
25.54844 711.000
25.57017 516.000
25.59190 371.000
25.61364 194.000
25.63537 158.000
25.65710 120.000
25.67884 80.000
25.70057 85.000
25.72230 75.000
25.74403 78.000
25.76577 78.000
25.78750 69.000
25.80923 71.000
25.83097 72.000
25.85270 76.000
25.87443 76.000
25.89616 65.000
25.91790 78.000
25.93963 71.000
25.96136 73.000
25.98310 63.000
26.00483 72.000
26.02656 65.000
26.04829 66.000
26.07003 75.000
26.09176 57.000
26.11349 74.000
26.13523 56.000
26.15696 79.000
26.17869 79.000
26.20042 61.000
26.22216 60.000
26.24389 107.000
26.26562 126.000
26.28736 174.000
26.30909 152.000
26.33082 141.000
26.35255 152.000
26.37429 142.000
26.39602 184.000
26.41775 186.000
26.43949 238.000
26.46122 231.000
26.48295 264.000
26.50468 219.000
26.52642 187.000
26.54815 177.000
26.56988 161.000
26.59162 149.000
26.61335 144.000
26.63508 172.000
26.65681 174.000
26.67855 188.000
26.70028 183.000
26.72201 155.000
26.74375 122.000
26.76548 118.000
26.78721 89.000
26.80895 81.000
26.83068 99.000
26.85241 67.000
26.87414 75.000
26.89588 72.000
26.91761 65.000
26.93934 66.000
26.96108 60.000
26.98281 68.000
27.00454 82.000
27.02627 80.000
27.04801 81.000
27.06974 73.000
27.09147 72.000
27.11321 84.000
27.13494 80.000
27.15667 72.000
27.17840 88.000
27.20014 76.000
27.22187 84.000
27.24360 85.000
27.26534 74.000
27.28707 96.000
27.30880 106.000
27.33053 133.000
27.35227 137.000
27.37400 154.000
27.39573 141.000
27.41747 99.000
27.43920 97.000
27.46093 109.000
27.48266 95.000
27.50440 73.000
27.52613 80.000
27.54786 60.000
27.56960 66.000
27.59133 73.000
27.61306 60.000
27.63479 48.000
27.65653 60.000
27.67826 65.000
27.69999 77.000
27.72173 62.000
27.74346 63.000
27.76519 55.000
27.78692 56.000
27.80866 63.000
27.83039 39.000
27.85212 59.000
27.87386 63.000
27.89559 61.000
27.91732 57.000
27.93905 53.000
27.96079 57.000
27.98252 61.000
28.00425 61.000
28.02599 58.000
28.04772 59.000
28.06945 72.000
28.09119 60.000
28.11292 72.000
28.13465 68.000
28.15638 90.000
28.17812 101.000
28.19985 116.000
28.22158 147.000
28.24332 155.000
28.26505 173.000
28.28678 177.000
28.30851 239.000
28.33025 232.000
28.35198 292.000
28.37371 320.000
28.39545 317.000
28.41718 345.000
28.43891 324.000
28.46064 235.000
28.48238 181.000
28.50411 150.000
28.52584 134.000
28.54758 92.000
28.56931 89.000
28.59104 69.000
28.61277 72.000
28.63451 49.000
28.65624 48.000
28.67797 48.000
28.69971 50.000
28.72144 45.000
28.74317 59.000
28.76490 56.000
28.78664 49.000
28.80837 61.000
28.83010 54.000
28.85184 48.000
28.87357 57.000
28.89530 36.000
28.91703 39.000
28.93877 61.000
28.96050 50.000
28.98223 52.000
29.00397 61.000
29.02570 65.000
29.04743 46.000
29.06916 58.000
29.09090 50.000
29.11263 49.000
29.13436 45.000
29.15610 46.000
29.17783 40.000
29.19956 65.000
29.22129 47.000
29.24303 59.000
29.26476 39.000
29.28649 48.000
29.30823 60.000
29.32996 62.000
29.35169 62.000
29.37342 64.000
29.39516 63.000
29.41689 59.000
29.43862 82.000
29.46036 82.000
29.48209 74.000
29.50382 92.000
29.52556 80.000
29.54729 91.000
29.56902 98.000
29.59075 96.000
29.61249 90.000
29.63422 82.000
29.65595 66.000
29.67769 59.000
29.69942 64.000
29.72115 64.000
29.74288 34.000
29.76462 44.000
29.78635 44.000
29.80808 45.000
29.82982 49.000
29.85155 54.000
29.87328 51.000
29.89501 47.000
29.91675 55.000
29.93848 58.000
29.96021 60.000
29.98195 52.000
30.00368 57.000
30.02541 39.000
30.04714 40.000
30.06888 64.000
30.09061 61.000
30.11234 55.000
30.13408 53.000
30.15581 55.000
30.17754 56.000
30.19927 57.000
30.22101 68.000
30.24274 53.000
30.26447 64.000
30.28621 66.000
30.30794 67.000
30.32967 74.000
30.35140 81.000
30.37314 119.000
30.39487 116.000
30.41660 118.000
30.43834 165.000
30.46007 167.000
30.48180 148.000
30.50353 136.000
30.52527 121.000
30.54700 114.000
30.56873 90.000
30.59047 71.000
30.61220 62.000
30.63393 77.000
30.65566 66.000
30.67740 41.000
30.69913 63.000
30.72086 53.000
30.74260 46.000
30.76433 72.000
30.78606 64.000
30.80780 68.000
30.82953 61.000
30.85126 61.000
30.87299 65.000
30.89473 49.000
30.91646 53.000
30.93819 70.000
30.95993 53.000
30.98166 43.000
31.00339 37.000
31.02512 45.000
31.04686 41.000
31.06859 39.000
31.09032 45.000
31.11206 38.000
31.13379 49.000
31.15552 41.000
31.17725 43.000
31.19899 42.000
31.22072 44.000
31.24245 40.000
31.26419 44.000
31.28592 42.000
31.30765 53.000
31.32938 50.000
31.35112 42.000
31.37285 42.000
31.39458 39.000
31.41632 49.000
31.43805 47.000
31.45978 57.000
31.48151 47.000
31.50325 45.000
31.52498 56.000
31.54671 62.000
31.56845 47.000
31.59018 39.000
31.61191 44.000
31.63364 38.000
31.65538 37.000
31.67711 44.000
31.69884 45.000
31.72058 41.000
31.74231 43.000
31.76404 42.000
31.78577 39.000
31.80751 40.000
31.82924 43.000
31.85097 45.000
31.87271 40.000
31.89444 44.000
31.91617 50.000
31.93790 41.000
31.95964 31.000
31.98137 42.000
32.00310 43.000
32.02484 62.000
32.04657 51.000
32.06830 46.000
32.09003 44.000
32.11177 39.000
32.13350 47.000
32.15523 31.000
32.17697 36.000
32.19870 47.000
32.22043 44.000
32.24217 39.000
32.26390 44.000
32.28563 49.000
32.30736 70.000
32.32910 56.000
32.35083 59.000
32.37256 52.000
32.39430 46.000
32.41603 68.000
32.43776 62.000
32.45949 47.000
32.48123 66.000
32.50296 65.000
32.52469 73.000
32.54643 56.000
32.56816 37.000
32.58989 41.000
32.61162 43.000
32.63336 37.000
32.65509 53.000
32.67682 62.000
32.69856 64.000
32.72029 54.000
32.74202 43.000
32.76375 53.000
32.78549 58.000
32.80722 62.000
32.82895 73.000
32.85069 85.000
32.87242 77.000
32.89415 85.000
32.91588 113.000
32.93762 95.000
32.95935 99.000
32.98108 101.000
33.00282 79.000
33.02455 73.000
33.04628 67.000
33.06801 59.000
33.08975 67.000
33.11148 51.000
33.13321 65.000
33.15495 46.000
33.17668 39.000
33.19841 46.000
33.22014 37.000
33.24188 36.000
33.26361 40.000
33.28534 44.000
33.30708 40.000
33.32881 50.000
33.35054 36.000
33.37227 44.000
33.39401 44.000
33.41574 38.000
33.43747 48.000
33.45921 56.000
33.48094 45.000
33.50267 35.000
33.52441 33.000
33.54614 50.000
33.56787 59.000
33.58960 47.000
33.61134 32.000
33.63307 45.000
33.65480 39.000
33.67654 44.000
33.69827 53.000
33.72000 56.000
33.74173 45.000
33.76347 38.000
33.78520 44.000
33.80693 52.000
33.82867 50.000
33.85040 56.000
33.87213 51.000
33.89386 49.000
33.91560 38.000
33.93733 34.000
33.95906 44.000
33.98080 40.000
34.00253 36.000
34.02426 28.000
34.04599 44.000
34.06773 42.000
34.08946 40.000
34.11119 37.000
34.13293 47.000
34.15466 50.000
34.17639 47.000
34.19812 49.000
34.21986 51.000
34.24159 61.000
34.26332 47.000
34.28506 68.000
34.30679 61.000
34.32852 51.000
34.35025 52.000
34.37199 52.000
34.39372 59.000
34.41545 52.000
34.43719 61.000
34.45892 39.000
34.48065 48.000
34.50238 65.000
34.52412 37.000
34.54585 73.000
34.56758 47.000
34.58932 47.000
34.61105 48.000
34.63278 41.000
34.65451 33.000
34.67625 36.000
34.69798 43.000
34.71971 42.000
34.74145 48.000
34.76318 42.000
34.78491 26.000
34.80664 37.000
34.82838 42.000
34.85011 47.000
34.87184 34.000
34.89358 25.000
34.91531 29.000
34.93704 42.000
34.95878 35.000
34.98051 44.000
35.00224 38.000
35.02397 39.000
35.04571 46.000
35.06744 37.000
35.08917 37.000
35.11091 37.000
35.13264 53.000
35.15437 33.000
35.17610 42.000
35.19784 42.000
35.21957 57.000
35.24130 57.000
35.26304 45.000
35.28477 57.000
35.30650 50.000
35.32823 43.000
35.34997 42.000
35.37170 33.000
35.39343 52.000
35.41517 33.000
35.43690 43.000
35.45863 42.000
35.48036 56.000
35.50210 58.000
35.52383 47.000
35.54556 63.000
35.56730 56.000
35.58903 65.000
35.61076 76.000
35.63249 75.000
35.65423 62.000
35.67596 93.000
35.69769 90.000
35.71943 73.000
35.74116 79.000
35.76289 84.000
35.78462 50.000
35.80636 70.000
35.82809 58.000
35.84982 48.000
35.87156 49.000
35.89329 41.000
35.91502 40.000
35.93675 37.000
35.95849 50.000
35.98022 54.000
36.00195 35.000
36.02369 38.000
36.04542 48.000
36.06715 42.000
36.08888 37.000
36.11062 46.000
36.13235 38.000
36.15408 44.000
36.17582 34.000
36.19755 38.000
36.21928 43.000
36.24102 55.000
36.26275 41.000
36.28448 36.000
36.30621 50.000
36.32795 42.000
36.34968 51.000
36.37141 65.000
36.39315 74.000
36.41488 82.000
36.43661 67.000
36.45834 63.000
36.48008 58.000
36.50181 54.000
36.52354 44.000
36.54528 54.000
36.56701 52.000
36.58874 51.000
36.61047 48.000
36.63221 38.000
36.65394 40.000
36.67567 36.000
36.69741 36.000
36.71914 45.000
36.74087 39.000
36.76260 42.000
36.78434 38.000
36.80607 44.000
36.82780 38.000
36.84954 37.000
36.87127 48.000
36.89300 45.000
36.91473 49.000
36.93647 33.000
36.95820 57.000
36.97993 55.000
37.00167 49.000
37.02340 56.000
37.04513 79.000
37.06686 69.000
37.08860 77.000
37.11033 83.000
37.13206 67.000
37.15380 71.000
37.17553 51.000
37.19726 48.000
37.21899 57.000
37.24073 47.000
37.26246 47.000
37.28419 39.000
37.30593 40.000
37.32766 41.000
37.34939 34.000
37.37112 43.000
37.39286 39.000
37.41459 46.000
37.43632 44.000
37.45806 52.000
37.47979 35.000
37.50152 42.000
37.52325 52.000
37.54499 44.000
37.56672 43.000
37.58845 46.000
37.61019 46.000
37.63192 58.000
37.65365 64.000
37.67539 48.000
37.69712 44.000
37.71885 57.000
37.74058 52.000
37.76232 46.000
37.78405 64.000
37.80578 41.000
37.82752 61.000
37.84925 55.000
37.87098 55.000
37.89271 58.000
37.91445 68.000
37.93618 76.000
37.95791 64.000
37.97965 65.000
38.00138 84.000
38.02311 106.000
38.04484 114.000
38.06658 64.000
38.08831 54.000
38.11004 46.000
38.13178 77.000
38.15351 61.000
38.17524 61.000
38.19697 46.000
38.21871 51.000
38.24044 46.000
38.26217 45.000
38.28391 39.000
38.30564 38.000
38.32737 34.000
38.34910 45.000
38.37084 46.000
38.39257 44.000
38.41430 59.000
38.43604 48.000
38.45777 45.000
38.47950 58.000
38.50123 61.000
38.52297 76.000
38.54470 81.000
38.56643 79.000
38.58817 91.000
38.60990 114.000
38.63163 114.000
38.65336 124.000
38.67510 136.000
38.69683 115.000
38.71856 144.000
38.74030 121.000
38.76203 116.000
38.78376 136.000
38.80549 120.000
38.82723 126.000
38.84896 107.000
38.87069 75.000
38.89243 88.000
38.91416 93.000
38.93589 58.000
38.95763 55.000
38.97936 45.000
39.00109 51.000
39.02282 42.000
39.04456 40.000
39.06629 37.000
39.08802 45.000
39.10976 46.000
39.13149 72.000
39.15322 56.000
39.17495 55.000
39.19669 54.000
39.21842 61.000
39.24015 61.000
39.26189 61.000
39.28362 71.000
39.30535 64.000
39.32708 47.000
39.34882 69.000
39.37055 66.000
39.39228 77.000
39.41402 105.000
39.43575 85.000
39.45748 75.000
39.47921 80.000
39.50095 104.000
39.52268 132.000
39.54441 129.000
39.56615 109.000
39.58788 131.000
39.60961 113.000
39.63134 116.000
39.65308 79.000
39.67481 78.000
39.69654 85.000
39.71828 83.000
39.74001 64.000
39.76174 36.000
39.78347 38.000
39.80521 54.000
39.82694 51.000
39.84867 36.000
39.87041 42.000
39.89214 39.000
39.91387 30.000
39.93560 37.000
39.95734 39.000
39.97907 31.000
40.00080 51.000
40.02254 39.000
40.04427 38.000
40.06600 31.000
40.08773 43.000
40.10947 28.000
40.13120 40.000
40.15293 47.000
40.17467 26.000
40.19640 34.000
40.21813 50.000
40.23986 53.000
40.26160 43.000
40.28333 47.000
40.30506 39.000
40.32680 48.000
40.34853 40.000
40.37026 62.000
40.39200 56.000
40.41373 53.000
40.43546 66.000
40.45719 76.000
40.47893 110.000
40.50066 118.000
40.52239 116.000
40.54413 101.000
40.56586 94.000
40.58759 97.000
40.60932 99.000
40.63106 82.000
40.65279 84.000
40.67452 81.000
40.69626 60.000
40.71799 69.000
40.73972 53.000
40.76145 65.000
40.78319 58.000
40.80492 61.000
40.82665 69.000
40.84839 73.000
40.87012 61.000
40.89185 64.000
40.91358 62.000
40.93532 53.000
40.95705 46.000
40.97878 52.000
41.00052 50.000
41.02225 49.000
41.04398 48.000
41.06571 51.000
41.08745 48.000
41.10918 44.000
41.13091 53.000
41.15265 41.000
41.17438 36.000
41.19611 36.000
41.21784 33.000
41.23958 37.000
41.26131 40.000
41.28304 46.000
41.30478 38.000
41.32651 45.000
41.34824 62.000
41.36997 50.000
41.39171 39.000
41.41344 45.000
41.43517 48.000
41.45691 44.000
41.47864 54.000
41.50037 57.000
41.52210 57.000
41.54384 55.000
41.56557 58.000
41.58730 42.000
41.60904 60.000
41.63077 54.000
41.65250 47.000
41.67424 53.000
41.69597 50.000
41.71770 68.000
41.73943 72.000
41.76117 56.000
41.78290 50.000
41.80463 47.000
41.82637 40.000
41.84810 47.000
41.86983 32.000
41.89156 34.000
41.91330 43.000
41.93503 37.000
41.95676 45.000
41.97850 48.000
42.00023 18.000
42.02196 29.000
42.04369 36.000
42.06543 48.000
42.08716 41.000
42.10889 30.000
42.13063 29.000
42.15236 38.000
42.17409 37.000
42.19582 47.000
42.21756 35.000
42.23929 27.000
42.26102 40.000
42.28276 41.000
42.30449 34.000
42.32622 31.000
42.34795 33.000
42.36969 42.000
42.39142 46.000
42.41315 45.000
42.43489 40.000
42.45662 40.000
42.47835 36.000
42.50008 38.000
42.52182 40.000
42.54355 35.000
42.56528 34.000
42.58702 43.000
42.60875 46.000
42.63048 44.000
42.65221 39.000
42.67395 54.000
42.69568 43.000
42.71741 49.000
42.73915 42.000
42.76088 32.000
42.78261 43.000
42.80434 44.000
42.82608 47.000
42.84781 39.000
42.86954 46.000
42.89128 50.000
42.91301 44.000
42.93474 49.000
42.95647 60.000
42.97821 69.000
42.99994 43.000
43.02167 68.000
43.04341 53.000
43.06514 59.000
43.08687 53.000
43.10861 75.000
43.13034 39.000
43.15207 55.000
43.17380 42.000
43.19554 44.000
43.21727 47.000
43.23900 51.000
43.26074 35.000
43.28247 48.000
43.30420 32.000
43.32593 39.000
43.34767 43.000
43.36940 41.000
43.39113 36.000
43.41287 43.000
43.43460 28.000
43.45633 48.000
43.47806 49.000
43.49980 38.000
43.52153 44.000
43.54326 38.000
43.56500 33.000
43.58673 46.000
43.60846 37.000
43.63019 45.000
43.65193 50.000
43.67366 38.000
43.69539 34.000
43.71713 38.000
43.73886 41.000
43.76059 32.000
43.78232 33.000
43.80406 41.000
43.82579 33.000
43.84752 43.000
43.86926 44.000
43.89099 39.000
43.91272 47.000
43.93445 49.000
43.95619 40.000
43.97792 42.000
43.99965 41.000
44.02139 54.000
44.04312 46.000
44.06485 40.000
44.08658 40.000
44.10832 35.000
44.13005 37.000
44.15178 42.000
44.17352 30.000
44.19525 46.000
44.21698 49.000
44.23871 47.000
44.26045 30.000
44.28218 40.000
44.30391 43.000
44.32565 38.000
44.34738 41.000
44.36911 49.000
44.39085 35.000
44.41258 50.000
44.43431 50.000
44.45604 57.000
44.47778 48.000
44.49951 51.000
44.52124 44.000
44.54298 37.000
44.56471 40.000
44.58644 40.000
44.60817 47.000
44.62991 37.000
44.65164 42.000
44.67337 40.000
44.69511 32.000
44.71684 37.000
44.73857 36.000
44.76030 37.000
44.78204 38.000
44.80377 53.000
44.82550 55.000
44.84724 37.000
44.86897 41.000
44.89070 38.000
44.91243 45.000
44.93417 31.000
44.95590 41.000
44.97763 43.000
44.99937 43.000
45.02110 42.000
45.04283 43.000
45.06456 37.000
45.08630 39.000
45.10803 35.000
45.12976 55.000
45.15150 29.000
45.17323 35.000
45.19496 23.000
45.21669 21.000
45.23843 38.000
45.26016 29.000
45.28189 30.000
45.30363 33.000
45.32536 31.000
45.34709 31.000
45.36882 28.000
45.39056 33.000
45.41229 33.000
45.43402 39.000
45.45576 42.000
45.47749 33.000
45.49922 40.000
45.52095 41.000
45.54269 34.000
45.56442 34.000
45.58615 47.000
45.60789 44.000
45.62962 33.000
45.65135 40.000
45.67308 44.000
45.69482 43.000
45.71655 52.000
45.73828 59.000
45.76002 53.000
45.78175 48.000
45.80348 48.000
45.82522 53.000
45.84695 54.000
45.86868 52.000
45.89041 38.000
45.91215 47.000
45.93388 52.000
45.95561 44.000
45.97735 36.000
45.99908 50.000
46.02081 42.000
46.04254 47.000
46.06428 46.000
46.08601 42.000
46.10774 40.000
46.12948 47.000
46.15121 44.000
46.17294 39.000
46.19467 42.000
46.21641 50.000
46.23814 47.000
46.25987 35.000
46.28161 46.000
46.30334 35.000
46.32507 45.000
46.34680 39.000
46.36854 26.000
46.39027 48.000
46.41200 43.000
46.43374 42.000
46.45547 40.000
46.47720 45.000
46.49893 43.000
46.52067 43.000
46.54240 40.000
46.56413 35.000
46.58587 33.000
46.60760 38.000
46.62933 39.000
46.65106 48.000
46.67280 43.000
46.69453 44.000
46.71626 49.000
46.73800 52.000
46.75973 50.000
46.78146 47.000
46.80319 53.000
46.82493 49.000
46.84666 65.000
46.86839 61.000
46.89013 74.000
46.91186 69.000
46.93359 84.000
46.95532 95.000
46.97706 103.000
46.99879 102.000
47.02052 96.000
47.04226 111.000
47.06399 101.000
47.08572 87.000
47.10746 68.000
47.12919 82.000
47.15092 89.000
47.17265 77.000
47.19439 89.000
47.21612 91.000
47.23785 110.000
47.25959 97.000
47.28132 64.000
47.30305 72.000
47.32478 88.000
47.34652 91.000
47.36825 90.000
47.38998 103.000
47.41172 76.000
47.43345 66.000
47.45518 58.000
47.47691 60.000
47.49865 50.000
47.52038 47.000
47.54211 54.000
47.56385 37.000
47.58558 48.000
47.60731 42.000
47.62904 45.000
47.65078 50.000
47.67251 45.000
47.69424 59.000
47.71598 44.000
47.73771 38.000
47.75944 46.000
47.78117 38.000
47.80291 42.000
47.82464 42.000
47.84637 35.000
47.86811 46.000
47.88984 58.000
47.91157 44.000
47.93330 56.000
47.95504 52.000
47.97677 47.000
47.99850 42.000
48.02024 59.000
48.04197 44.000
48.06370 45.000
48.08543 41.000
48.10717 51.000
48.12890 51.000
48.15063 47.000
48.17237 65.000
48.19410 57.000
48.21583 66.000
48.23756 66.000
48.25930 70.000
48.28103 71.000
48.30276 62.000
48.32450 70.000
48.34623 68.000
48.36796 66.000
48.38969 64.000
48.41143 49.000
48.43316 44.000
48.45489 47.000
48.47663 42.000
48.49836 47.000
48.52009 40.000
48.54183 27.000
48.56356 41.000
48.58529 39.000
48.60702 45.000
48.62876 39.000
48.65049 31.000
48.67222 40.000
48.69396 34.000
48.71569 46.000
48.73742 57.000
48.75915 39.000
48.78089 50.000
48.80262 35.000
48.82435 50.000
48.84609 58.000
48.86782 41.000
48.88955 56.000
48.91128 36.000
48.93302 46.000
48.95475 51.000
48.97648 49.000
48.99822 56.000
49.01995 49.000
49.04168 59.000
49.06341 58.000
49.08515 66.000
49.10688 63.000
49.12861 52.000
49.15035 49.000
49.17208 61.000
49.19381 60.000
49.21554 56.000
49.23728 54.000
49.25901 39.000
49.28074 44.000
49.30248 55.000
49.32421 56.000
49.34594 49.000
49.36767 52.000
49.38941 56.000
49.41114 67.000
49.43287 79.000
49.45461 82.000
49.47634 86.000
49.49807 83.000
49.51980 62.000
49.54154 77.000
49.56327 84.000
49.58500 114.000
49.60674 122.000
49.62847 88.000
49.65020 97.000
49.67193 91.000
49.69367 89.000
49.71540 92.000
49.73713 81.000
49.75887 90.000
49.78060 73.000
49.80233 74.000
49.82407 66.000
49.84580 49.000
49.86753 49.000
49.88926 41.000
49.91100 48.000
49.93273 46.000
49.95446 41.000
49.97620 44.000
49.99793 47.000
50.01966 43.000
50.04139 42.000
50.06313 41.000
50.08486 48.000
50.10659 57.000
50.12833 51.000
50.15006 48.000
50.17179 55.000
50.19352 74.000
50.21526 70.000
50.23699 65.000
50.25872 60.000
50.28046 49.000
50.30219 61.000
50.32392 43.000
50.34565 47.000
50.36739 58.000
50.38912 48.000
50.41085 61.000
50.43259 41.000
50.45432 37.000
50.47605 38.000
50.49778 61.000
50.51952 43.000
50.54125 49.000
50.56298 30.000
50.58472 34.000
50.60645 34.000
50.62818 56.000
50.64991 44.000
50.67165 71.000
50.69338 44.000
50.71511 44.000
50.73685 50.000
50.75858 37.000
50.78031 51.000
50.80204 51.000
50.82378 47.000
50.84551 45.000
50.86724 37.000
50.88898 43.000
50.91071 65.000
50.93244 40.000
50.95417 44.000
50.97591 51.000
50.99764 41.000
51.01937 42.000
51.04111 31.000
51.06284 31.000
51.08457 34.000
51.10630 37.000
51.12804 43.000
51.14977 44.000
51.17150 34.000
51.19324 52.000
51.21497 55.000
51.23670 55.000
51.25844 37.000
51.28017 43.000
51.30190 46.000
51.32363 50.000
51.34537 46.000
51.36710 55.000
51.38883 51.000
51.41057 48.000
51.43230 41.000
51.45403 47.000
51.47576 39.000
51.49750 28.000
51.51923 39.000
51.54096 36.000
51.56270 42.000
51.58443 22.000
51.60616 32.000
51.62789 44.000
51.64963 38.000
51.67136 42.000
51.69309 41.000
51.71483 43.000
51.73656 31.000
51.75829 29.000
51.78002 42.000
51.80176 43.000
51.82349 31.000
51.84522 25.000
51.86696 31.000
51.88869 35.000
51.91042 36.000
51.93215 39.000
51.95389 35.000
51.97562 33.000
51.99735 32.000
52.01909 36.000
52.04082 41.000
52.06255 37.000
52.08428 30.000
52.10602 37.000
52.12775 43.000
52.14948 46.000
52.17122 58.000
52.19295 43.000
52.21468 52.000
52.23641 53.000
52.25815 51.000
52.27988 59.000
52.30161 37.000
52.32335 43.000
52.34508 38.000
52.36681 27.000
52.38854 38.000
52.41028 38.000
52.43201 40.000
52.45374 34.000
52.47548 41.000
52.49721 34.000
52.51894 31.000
52.54068 30.000
52.56241 27.000
52.58414 26.000
52.60587 36.000
52.62761 24.000
52.64934 32.000
52.67107 33.000
52.69281 31.000
52.71454 37.000
52.73627 26.000
52.75800 44.000
52.77974 27.000
52.80147 32.000
52.82320 34.000
52.84494 37.000
52.86667 30.000
52.88840 27.000
52.91013 28.000
52.93187 31.000
52.95360 23.000
52.97533 32.000
52.99707 31.000
53.01880 37.000
53.04053 28.000
53.06226 26.000
53.08400 35.000
53.10573 41.000
53.12746 33.000
53.14920 31.000
53.17093 33.000
53.19266 36.000
53.21439 37.000
53.23613 40.000
53.25786 32.000
53.27959 46.000
53.30133 36.000
53.32306 23.000
53.34479 46.000
53.36652 38.000
53.38826 32.000
53.40999 20.000
53.43172 31.000
53.45346 38.000
53.47519 37.000
53.49692 35.000
53.51865 38.000
53.54039 33.000
53.56212 41.000
53.58385 42.000
53.60559 34.000
53.62732 43.000
53.64905 43.000
53.67078 33.000
53.69252 33.000
53.71425 28.000
53.73598 37.000
53.75772 28.000
53.77945 35.000
53.80118 27.000
53.82291 38.000
53.84465 40.000
53.86638 30.000
53.88811 37.000
53.90985 25.000
53.93158 26.000
53.95331 28.000
53.97505 29.000
53.99678 32.000
54.01851 26.000
54.04024 32.000
54.06198 23.000
54.08371 27.000
54.10544 31.000
54.12718 33.000
54.14891 35.000
54.17064 29.000
54.19237 23.000
54.21411 35.000
54.23584 36.000
54.25757 27.000
54.27931 32.000
54.30104 51.000
54.32277 35.000
54.34450 29.000
54.36624 32.000
54.38797 37.000
54.40970 36.000
54.43144 32.000
54.45317 34.000
54.47490 27.000
54.49663 35.000
54.51837 29.000
54.54010 25.000
54.56183 27.000
54.58357 44.000
54.60530 24.000
54.62703 30.000
54.64876 34.000
54.67050 34.000
54.69223 44.000
54.71396 29.000
54.73570 40.000
54.75743 30.000
54.77916 37.000
54.80089 41.000
54.82263 31.000
54.84436 34.000
54.86609 27.000
54.88783 30.000
54.90956 35.000
54.93129 43.000
54.95302 33.000
54.97476 32.000
54.99649 25.000
55.01822 32.000
55.03996 31.000
55.06169 37.000
55.08342 29.000
55.10515 31.000
55.12689 46.000
55.14862 41.000
55.17035 34.000
55.19209 33.000
55.21382 41.000
55.23555 25.000
55.25729 28.000
55.27902 33.000
55.30075 30.000
55.32248 31.000
55.34422 23.000
55.36595 32.000
55.38768 28.000
55.40942 26.000
55.43115 26.000
55.45288 37.000
55.47461 48.000
55.49635 30.000
55.51808 27.000
55.53981 40.000
55.56155 35.000
55.58328 41.000
55.60501 28.000
55.62674 32.000
55.64848 42.000
55.67021 36.000
55.69194 38.000
55.71368 34.000
55.73541 31.000
55.75714 40.000
55.77887 22.000
55.80061 36.000
55.82234 36.000
55.84407 36.000
55.86581 47.000
55.88754 29.000
55.90927 34.000
55.93100 29.000
55.95274 31.000
55.97447 34.000
55.99620 32.000
56.01794 31.000
56.03967 33.000
56.06140 31.000
56.08313 23.000
56.10487 32.000
56.12660 35.000
56.14833 31.000
56.17007 31.000
56.19180 27.000
56.21353 24.000
56.23526 18.000
56.25700 31.000
56.27873 48.000
56.30046 43.000
56.32220 44.000
56.34393 44.000
56.36566 35.000
56.38739 18.000
56.40913 31.000
56.43086 36.000
56.45259 33.000
56.47433 22.000
56.49606 27.000
56.51779 38.000
56.53952 26.000
56.56126 37.000
56.58299 34.000
56.60472 42.000
56.62646 26.000
56.64819 38.000
56.66992 35.000
56.69166 37.000
56.71339 31.000
56.73512 42.000
56.75685 27.000
56.77859 31.000
56.80032 32.000
56.82205 33.000
56.84379 29.000
56.86552 48.000
56.88725 39.000
56.90898 43.000
56.93072 35.000
56.95245 45.000
56.97418 41.000
56.99592 40.000
57.01765 51.000
57.03938 40.000
57.06111 54.000
57.08285 59.000
57.10458 40.000
57.12631 39.000
57.14805 38.000
57.16978 49.000
57.19151 30.000
57.21324 49.000
57.23498 50.000
57.25671 32.000
57.27844 29.000
57.30018 29.000
57.32191 24.000
57.34364 31.000
57.36537 37.000
57.38711 35.000
57.40884 22.000
57.43057 22.000
57.45231 23.000
57.47404 33.000
57.49577 33.000
57.51750 30.000
57.53924 29.000
57.56097 30.000
57.58270 15.000
57.60444 38.000
57.62617 25.000
57.64790 38.000
57.66963 22.000
57.69137 34.000
57.71310 30.000
57.73483 32.000
57.75657 31.000
57.77830 33.000
57.80003 24.000
57.82176 32.000
57.84350 29.000
57.86523 27.000
57.88696 15.000
57.90870 15.000
57.93043 28.000
57.95216 17.000
57.97390 29.000
57.99563 27.000
58.01736 27.000
58.03909 23.000
58.06083 27.000
58.08256 37.000
58.10429 29.000
58.12603 43.000
58.14776 42.000
58.16949 29.000
58.19122 33.000
58.21296 33.000
58.23469 27.000
58.25642 28.000
58.27816 35.000
58.29989 31.000
58.32162 34.000
58.34335 38.000
58.36509 27.000
58.38682 17.000
58.40855 28.000
58.43029 18.000
58.45202 36.000
58.47375 32.000
58.49548 36.000
58.51722 32.000
58.53895 38.000
58.56068 37.000
58.58242 37.000
58.60415 38.000
58.62588 41.000
58.64761 37.000
58.66935 31.000
58.69108 38.000
58.71281 32.000
58.73455 40.000
58.75628 35.000
58.77801 27.000
58.79974 29.000
58.82148 46.000
58.84321 50.000
58.86494 29.000
58.88668 37.000
58.90841 38.000
58.93014 38.000
58.95187 32.000
58.97361 31.000
58.99534 40.000
59.01707 30.000
59.03881 21.000
59.06054 18.000
59.08227 26.000
59.10400 29.000
59.12574 22.000
59.14747 36.000
59.16920 25.000
59.19094 31.000
59.21267 35.000
59.23440 28.000
59.25613 29.000
59.27787 21.000
59.29960 22.000
59.32133 28.000
59.34307 29.000
59.36480 34.000
59.38653 30.000
59.40827 30.000
59.43000 16.000
59.45173 39.000
59.47346 32.000
59.49520 23.000
59.51693 38.000
59.53866 28.000
59.56040 32.000
59.58213 33.000
59.60386 28.000
59.62559 33.000
59.64733 26.000
59.66906 33.000
59.69079 29.000
59.71253 18.000
59.73426 24.000
59.75599 30.000
59.77772 24.000
59.79946 27.000
59.82119 27.000
59.84292 40.000
59.86466 32.000
59.88639 48.000
59.90812 35.000
59.92985 25.000
59.95159 27.000
59.97332 29.000
59.99505 28.000
60.01679 25.000
60.03852 28.000
60.06025 34.000
60.08198 26.000
60.10372 34.000
60.12545 27.000
60.14718 31.000
60.16892 19.000
60.19065 29.000
60.21238 36.000
60.23411 30.000
60.25585 23.000
60.27758 25.000
60.29931 20.000
60.32105 17.000
60.34278 20.000
60.36451 21.000
60.38624 27.000
60.40798 20.000
60.42971 25.000
60.45144 34.000
60.47318 21.000
60.49491 34.000
60.51664 37.000
60.53837 31.000
60.56011 29.000
60.58184 17.000
60.60357 28.000
60.62531 26.000
60.64704 29.000
60.66877 32.000
60.69051 27.000
60.71224 26.000
60.73397 25.000
60.75570 29.000
60.77744 28.000
60.79917 38.000
60.82090 20.000
60.84264 16.000
60.86437 27.000
60.88610 30.000
60.90783 29.000
60.92957 15.000
60.95130 26.000
60.97303 22.000
60.99477 35.000
61.01650 42.000
61.03823 23.000
61.05996 34.000
61.08170 25.000
61.10343 37.000
61.12516 26.000
61.14690 34.000
61.16863 30.000
61.19036 36.000
61.21209 31.000
61.23383 30.000
61.25556 26.000
61.27729 35.000
61.29903 27.000
61.32076 33.000
61.34249 28.000
61.36422 39.000
61.38596 36.000
61.40769 29.000
61.42942 26.000
61.45116 37.000
61.47289 32.000
61.49462 27.000
61.51635 34.000
61.53809 30.000
61.55982 29.000
61.58155 30.000
61.60329 22.000
61.62502 26.000
61.64675 25.000
61.66848 39.000
61.69022 31.000
61.71195 28.000
61.73368 23.000
61.75542 26.000
61.77715 30.000
61.79888 38.000
61.82061 30.000
61.84235 30.000
61.86408 29.000
61.88581 29.000
61.90755 24.000
61.92928 27.000
61.95101 30.000
61.97274 25.000
61.99448 19.000
62.01621 22.000
62.03794 22.000
62.05968 23.000
62.08141 27.000
62.10314 26.000
62.12488 26.000
62.14661 23.000
62.16834 21.000
62.19007 29.000
62.21181 34.000
62.23354 17.000
62.25527 42.000
62.27701 22.000
62.29874 28.000
62.32047 31.000
62.34220 25.000
62.36394 43.000
62.38567 24.000
62.40740 25.000
62.42914 18.000
62.45087 18.000
62.47260 21.000
62.49433 28.000
62.51607 27.000
62.53780 19.000
62.55953 26.000
62.58127 25.000
62.60300 24.000
62.62473 26.000
62.64646 35.000
62.66820 31.000
62.68993 25.000
62.71166 37.000
62.73340 31.000
62.75513 10.000
62.77686 30.000
62.79859 22.000
62.82033 26.000
62.84206 27.000
62.86379 24.000
62.88553 30.000
62.90726 21.000
62.92899 33.000
62.95072 26.000
62.97246 15.000
62.99419 31.000
63.01592 21.000
63.03766 22.000
63.05939 26.000
63.08112 31.000
63.10285 28.000
63.12459 18.000
63.14632 28.000
63.16805 31.000
63.18979 29.000
63.21152 22.000
63.23325 31.000
63.25498 21.000
63.27672 20.000
63.29845 34.000
63.32018 35.000
63.34192 27.000
63.36365 29.000
63.38538 37.000
63.40712 36.000
63.42885 26.000
63.45058 29.000
63.47231 26.000
63.49405 31.000
63.51578 23.000
63.53751 29.000
63.55925 27.000
63.58098 34.000
63.60271 34.000
63.62444 36.000
63.64618 39.000
63.66791 25.000
63.68964 26.000
63.71138 22.000
63.73311 30.000
63.75484 25.000
63.77657 23.000
63.79831 18.000
63.82004 28.000
63.84177 27.000
63.86351 27.000
63.88524 38.000
63.90697 39.000
63.92870 29.000
63.95044 25.000
63.97217 35.000
63.99390 41.000
64.01564 26.000
64.03737 33.000
64.05910 26.000
64.08083 34.000
64.10257 27.000
64.12430 39.000
64.14603 31.000
64.16777 32.000
64.18950 36.000
64.21123 25.000
64.23296 36.000
64.25470 39.000
64.27643 28.000
64.29816 21.000
64.31990 37.000
64.34163 34.000
64.36336 46.000
64.38509 27.000
64.40683 27.000
64.42856 19.000
64.45029 26.000
64.47203 37.000
64.49376 30.000
64.51549 25.000
64.53722 18.000
64.55896 26.000
64.58069 22.000
64.60242 36.000
64.62416 35.000
64.64589 30.000
64.66762 29.000
64.68935 35.000
64.71109 26.000
64.73282 36.000
64.75455 25.000
64.77629 38.000
64.79802 23.000
64.81975 32.000
64.84149 25.000
64.86322 26.000
64.88495 38.000
64.90668 35.000
64.92842 33.000
64.95015 28.000
64.97188 27.000
64.99362 23.000
65.01535 25.000
65.03708 28.000
65.05881 28.000
65.08055 33.000
65.10228 26.000
65.12401 27.000
65.14575 31.000
65.16748 26.000
65.18921 28.000
65.21094 25.000
65.23268 35.000
65.25441 27.000
65.27614 38.000
65.29788 29.000
65.31961 31.000
65.34134 30.000
65.36307 22.000
65.38481 31.000
65.40654 22.000
65.42827 33.000
65.45001 41.000
65.47174 28.000
65.49347 23.000
65.51520 22.000
65.53694 38.000
65.55867 32.000
65.58040 31.000
65.60214 31.000
65.62387 28.000
65.64560 21.000
65.66733 27.000
65.68907 35.000
65.71080 29.000
65.73253 25.000
65.75427 22.000
65.77600 26.000
65.79773 25.000
65.81946 18.000
65.84120 15.000
65.86293 29.000
65.88466 21.000
65.90640 25.000
65.92813 31.000
65.94986 27.000
65.97159 28.000
65.99333 28.000
66.01506 22.000
66.03679 18.000
66.05853 28.000
66.08026 14.000
66.10199 21.000
66.12373 32.000
66.14546 30.000
66.16719 32.000
66.18892 32.000
66.21066 25.000
66.23239 34.000
66.25412 31.000
66.27586 46.000
66.29759 61.000
66.31932 66.000
66.34105 70.000
66.36279 67.000
66.38452 75.000
66.40625 111.000
66.42799 144.000
66.44972 128.000
66.47145 98.000
66.49318 94.000
66.51492 73.000
66.53665 65.000
66.55838 67.000
66.58012 57.000
66.60185 76.000
66.62358 77.000
66.64531 77.000
66.66705 56.000
66.68878 45.000
66.71051 52.000
66.73225 37.000
66.75398 34.000
66.77571 35.000
66.79744 26.000
66.81918 31.000
66.84091 32.000
66.86264 34.000
66.88438 24.000
66.90611 39.000
66.92784 28.000
66.94957 30.000
66.97131 22.000
66.99304 29.000
67.01477 31.000
67.03651 33.000
67.05824 22.000
67.07997 28.000
67.10170 29.000
67.12344 18.000
67.14517 29.000
67.16690 35.000
67.18864 25.000
67.21037 36.000
67.23210 26.000
67.25383 37.000
67.27557 35.000
67.29730 31.000
67.31903 28.000
67.34077 25.000
67.36250 28.000
67.38423 32.000
67.40596 30.000
67.42770 34.000
67.44943 29.000
67.47116 31.000
67.49290 19.000
67.51463 28.000
67.53636 25.000
67.55810 32.000
67.57983 28.000
67.60156 29.000
67.62329 27.000
67.64503 22.000
67.66676 22.000
67.68849 14.000
67.71023 37.000
67.73196 29.000
67.75369 21.000
67.77542 19.000
67.79716 35.000
67.81889 18.000
67.84062 25.000
67.86236 18.000
67.88409 23.000
67.90582 28.000
67.92755 27.000
67.94929 28.000
67.97102 19.000
67.99275 24.000
68.01449 27.000
68.03622 24.000
68.05795 31.000
68.07968 26.000
68.10142 20.000
68.12315 22.000
68.14488 25.000
68.16662 23.000
68.18835 24.000
68.21008 37.000
68.23181 24.000
68.25355 26.000
68.27528 24.000
68.29701 26.000
68.31875 33.000
68.34048 27.000
68.36221 40.000
68.38394 29.000
68.40568 21.000
68.42741 29.000
68.44914 31.000
68.47088 24.000
68.49261 25.000
68.51434 27.000
68.53607 24.000
68.55781 19.000
68.57954 24.000
68.60127 24.000
68.62301 21.000
68.64474 23.000
68.66647 24.000
68.68820 23.000
68.70994 26.000
68.73167 32.000
68.75340 23.000
68.77514 38.000
68.79687 25.000
68.81860 19.000
68.84034 16.000
68.86207 20.000
68.88380 31.000
68.90553 39.000
68.92727 39.000
68.94900 23.000
68.97073 21.000
68.99247 29.000
69.01420 22.000
69.03593 27.000
69.05766 18.000
69.07940 26.000
69.10113 31.000
69.12286 25.000
69.14460 23.000
69.16633 40.000
69.18806 27.000
69.20979 26.000
69.23153 20.000
69.25326 18.000
69.27499 20.000
69.29673 31.000
69.31846 25.000
69.34019 18.000
69.36192 14.000
69.38366 26.000
69.40539 20.000
69.42712 25.000
69.44886 26.000
69.47059 25.000
69.49232 20.000
69.51405 24.000
69.53579 22.000
69.55752 32.000
69.57925 33.000
69.60099 23.000
69.62272 34.000
69.64445 20.000
69.66618 25.000
69.68792 20.000
69.70965 25.000
69.73138 24.000
69.75312 35.000
69.77485 30.000
69.79658 33.000
69.81831 25.000
69.84005 32.000
69.86178 26.000
69.88351 22.000
69.90525 23.000
69.92698 22.000
69.94871 35.000
69.97044 24.000
69.99218 29.000
