3.01187 37.000
3.03360 51.000
3.05533 29.000
3.07707 40.000
3.09880 31.000
3.12053 58.000
3.14226 42.000
3.16400 32.000
3.18573 53.000
3.20746 47.000
3.22920 42.000
3.25093 51.000
3.27266 48.000
3.29439 44.000
3.31613 57.000
3.33786 44.000
3.35959 45.000
3.38133 37.000
3.40306 44.000
3.42479 50.000
3.44652 40.000
3.46826 55.000
3.48999 53.000
3.51172 42.000
3.53346 46.000
3.55519 42.000
3.57692 44.000
3.59865 42.000
3.62039 43.000
3.64212 47.000
3.66385 46.000
3.68559 56.000
3.70732 53.000
3.72905 50.000
3.75078 50.000
3.77252 45.000
3.79425 46.000
3.81598 53.000
3.83772 37.000
3.85945 39.000
3.88118 50.000
3.90291 38.000
3.92465 56.000
3.94638 49.000
3.96811 56.000
3.98985 59.000
4.01158 50.000
4.03331 53.000
4.05504 41.000
4.07678 36.000
4.09851 59.000
4.12024 45.000
4.14198 55.000
4.16371 38.000
4.18544 52.000
4.20717 56.000
4.22891 58.000
4.25064 52.000
4.27237 57.000
4.29411 53.000
4.31584 55.000
4.33757 52.000
4.35931 59.000
4.38104 43.000
4.40277 56.000
4.42450 60.000
4.44624 61.000
4.46797 54.000
4.48970 53.000
4.51144 45.000
4.53317 58.000
4.55490 59.000
4.57663 58.000
4.59837 56.000
4.62010 63.000
4.64183 50.000
4.66357 60.000
4.68530 60.000
4.70703 54.000
4.72876 62.000
4.75050 55.000
4.77223 53.000
4.79396 48.000
4.81570 74.000
4.83743 57.000
4.85916 47.000
4.88089 41.000
4.90263 68.000
4.92436 50.000
4.94609 58.000
4.96783 51.000
4.98956 41.000
5.01129 62.000
5.03302 64.000
5.05476 60.000
5.07649 59.000
5.09822 51.000
5.11996 61.000
5.14169 53.000
5.16342 62.000
5.18515 64.000
5.20689 67.000
5.22862 59.000
5.25035 61.000
5.27209 56.000
5.29382 64.000
5.31555 65.000
5.33728 62.000
5.35902 57.000
5.38075 70.000
5.40248 63.000
5.42422 63.000
5.44595 56.000
5.46768 61.000
5.48941 56.000
5.51115 58.000
5.53288 52.000
5.55461 64.000
5.57635 60.000
5.59808 62.000
5.61981 69.000
5.64154 60.000
5.66328 60.000
5.68501 66.000
5.70674 59.000
5.72848 66.000
5.75021 64.000
5.77194 75.000
5.79368 60.000
5.81541 57.000
5.83714 60.000
5.85887 69.000
5.88061 74.000
5.90234 76.000
5.92407 84.000
5.94581 76.000
5.96754 59.000
5.98927 71.000
6.01100 65.000
6.03274 62.000
6.05447 71.000
6.07620 71.000
6.09794 53.000
6.11967 80.000
6.14140 74.000
6.16313 89.000
6.18487 65.000
6.20660 72.000
6.22833 60.000
6.25007 75.000
6.27180 62.000
6.29353 71.000
6.31526 69.000
6.33700 64.000
6.35873 72.000
6.38046 78.000
6.40220 77.000
6.42393 67.000
6.44566 73.000
6.46739 82.000
6.48913 75.000
6.51086 68.000
6.53259 62.000
6.55433 87.000
6.57606 63.000
6.59779 84.000
6.61952 61.000
6.64126 76.000
6.66299 78.000
6.68472 70.000
6.70646 81.000
6.72819 64.000
6.74992 70.000
6.77165 69.000
6.79339 64.000
6.81512 79.000
6.83685 77.000
6.85859 68.000
6.88032 91.000
6.90205 82.000
6.92378 66.000
6.94552 72.000
6.96725 69.000
6.98898 66.000
7.01072 89.000
7.03245 91.000
7.05418 71.000
7.07592 69.000
7.09765 68.000
7.11938 82.000
7.14111 82.000
7.16285 83.000
7.18458 60.000
7.20631 104.000
7.22805 73.000
7.24978 80.000
7.27151 93.000
7.29324 73.000
7.31498 80.000
7.33671 80.000
7.35844 69.000
7.38018 76.000
7.40191 94.000
7.42364 81.000
7.44537 80.000
7.46711 73.000
7.48884 74.000
7.51057 81.000
7.53231 80.000
7.55404 87.000
7.57577 81.000
7.59750 88.000
7.61924 86.000
7.64097 90.000
7.66270 70.000
7.68444 84.000
7.70617 77.000
7.72790 80.000
7.74963 92.000
7.77137 80.000
7.79310 94.000
7.81483 79.000
7.83657 78.000
7.85830 90.000
7.88003 70.000
7.90176 86.000
7.92350 86.000
7.94523 70.000
7.96696 80.000
7.98870 85.000
8.01043 78.000
8.03216 95.000
8.05389 80.000
8.07563 92.000
8.09736 73.000
8.11909 93.000
8.14083 89.000
8.16256 89.000
8.18429 82.000
8.20602 79.000
8.22776 85.000
8.24949 93.000
8.27122 87.000
8.29296 88.000
8.31469 93.000
8.33642 79.000
8.35815 79.000
8.37989 73.000
8.40162 86.000
8.42335 100.000
8.44509 74.000
8.46682 95.000
8.48855 94.000
8.51029 88.000
8.53202 106.000
8.55375 107.000
8.57548 112.000
8.59722 111.000
8.61895 127.000
8.64068 133.000
8.66242 108.000
8.68415 125.000
8.70588 126.000
8.72761 112.000
8.74935 127.000
8.77108 121.000
8.79281 121.000
8.81455 93.000
8.83628 102.000
8.85801 87.000
8.87974 99.000
8.90148 91.000
8.92321 92.000
8.94494 90.000
8.96668 77.000
8.98841 84.000
9.01014 86.000
9.03187 98.000
9.05361 118.000
9.07534 110.000
9.09707 74.000
9.11881 105.000
9.14054 107.000
9.16227 100.000
9.18400 91.000
9.20574 106.000
9.22747 81.000
9.24920 91.000
9.27094 91.000
9.29267 88.000
9.31440 77.000
9.33613 94.000
9.35787 76.000
9.37960 96.000
9.40133 90.000
9.42307 85.000
9.44480 73.000
9.46653 79.000
9.48826 90.000
9.51000 102.000
9.53173 110.000
9.55346 116.000
9.57520 109.000
9.59693 82.000
9.61866 96.000
9.64039 81.000
9.66213 131.000
9.68386 90.000
9.70559 80.000
9.72733 81.000
9.74906 90.000
9.77079 88.000
9.79253 96.000
9.81426 100.000
9.83599 92.000
9.85772 118.000
9.87946 88.000
9.90119 78.000
9.92292 72.000
9.94466 100.000
9.96639 84.000
9.98812 96.000
10.00985 93.000
10.03159 103.000
10.05332 100.000
10.07505 87.000
10.09679 80.000
10.11852 103.000
10.14025 99.000
10.16198 100.000
10.18372 94.000
10.20545 93.000
10.22718 91.000
10.24892 83.000
10.27065 103.000
10.29238 121.000
10.31411 83.000
10.33585 107.000
10.35758 98.000
10.37931 116.000
10.40105 106.000
10.42278 106.000
10.44451 91.000
10.46624 86.000
10.48798 105.000
10.50971 91.000
10.53144 90.000
10.55318 103.000
10.57491 106.000
10.59664 78.000
10.61837 99.000
10.64011 94.000
10.66184 102.000
10.68357 96.000
10.70531 92.000
10.72704 111.000
10.74877 119.000
10.77050 103.000
10.79224 124.000
10.81397 121.000
10.83570 146.000
10.85744 127.000
10.87917 172.000
10.90090 174.000
10.92263 191.000
10.94437 167.000
10.96610 239.000
10.98783 256.000
11.00957 247.000
11.03130 241.000
11.05303 229.000
11.07476 200.000
11.09650 217.000
11.11823 183.000
11.13996 161.000
11.16170 148.000
11.18343 135.000
11.20516 112.000
11.22690 129.000
11.24863 104.000
11.27036 107.000
11.29209 107.000
11.31383 102.000
11.33556 112.000
11.35729 103.000
11.37903 106.000
11.40076 106.000
11.42249 89.000
11.44422 107.000
11.46596 103.000
11.48769 106.000
11.50942 99.000
11.53116 114.000
11.55289 94.000
11.57462 101.000
11.59635 116.000
11.61809 109.000
11.63982 105.000
11.66155 100.000
11.68329 108.000
11.70502 104.000
11.72675 109.000
11.74848 97.000
11.77022 98.000
11.79195 89.000
11.81368 92.000
11.83542 108.000
11.85715 100.000
11.87888 114.000
11.90061 108.000
11.92235 104.000
11.94408 110.000
11.96581 121.000
11.98755 87.000
12.00928 121.000
12.03101 109.000
12.05274 124.000
12.07448 107.000
12.09621 92.000
12.11794 129.000
12.13968 105.000
12.16141 84.000
12.18314 96.000
12.20487 116.000
12.22661 96.000
12.24834 105.000
12.27007 112.000
12.29181 106.000
12.31354 104.000
12.33527 107.000
12.35700 105.000
12.37874 97.000
12.40047 103.000
12.42220 142.000
12.44394 129.000
12.46567 109.000
12.48740 120.000
12.50914 123.000
12.53087 137.000
12.55260 155.000
12.57433 141.000
12.59607 183.000
12.61780 205.000
12.63953 219.000
12.66127 236.000
12.68300 245.000
12.70473 305.000
12.72646 313.000
12.74820 277.000
12.76993 318.000
12.79166 282.000
12.81340 267.000
12.83513 207.000
12.85686 212.000
12.87859 165.000
12.90033 168.000
12.92206 146.000
12.94379 128.000
12.96553 100.000
12.98726 123.000
13.00899 109.000
13.03072 114.000
13.05246 103.000
13.07419 95.000
13.09592 103.000
13.11766 126.000
13.13939 122.000
13.16112 109.000
13.18285 134.000
13.20459 84.000
13.22632 92.000
13.24805 119.000
13.26979 117.000
13.29152 107.000
13.31325 112.000
13.33498 112.000
13.35672 114.000
13.37845 118.000
13.40018 124.000
13.42192 112.000
13.44365 123.000
13.46538 114.000
13.48711 103.000
13.50885 127.000
13.53058 115.000
13.55231 92.000
13.57405 115.000
13.59578 118.000
13.61751 130.000
13.63924 135.000
13.66098 96.000
13.68271 118.000
13.70444 131.000
13.72618 114.000
13.74791 113.000
13.76964 121.000
13.79137 138.000
13.81311 139.000
13.83484 127.000
13.85657 135.000
13.87831 118.000
13.90004 110.000
13.92177 135.000
13.94351 105.000
13.96524 140.000
13.98697 117.000
14.00870 115.000
14.03044 113.000
14.05217 132.000
14.07390 108.000
14.09564 114.000
14.11737 126.000
14.13910 137.000
14.16083 126.000
14.18257 119.000
14.20430 135.000
14.22603 138.000
14.24777 122.000
14.26950 140.000
14.29123 126.000
14.31296 123.000
14.33470 148.000
14.35643 147.000
14.37816 131.000
14.39990 119.000
14.42163 128.000
14.44336 135.000
14.46509 117.000
14.48683 109.000
14.50856 116.000
14.53029 123.000
14.55203 141.000
14.57376 132.000
14.59549 114.000
14.61722 126.000
14.63896 128.000
14.66069 112.000
14.68242 117.000
14.70416 136.000
14.72589 128.000
14.74762 128.000
14.76935 123.000
14.79109 107.000
14.81282 118.000
14.83455 119.000
14.85629 129.000
14.87802 139.000
14.89975 114.000
14.92148 125.000
14.94322 141.000
14.96495 131.000
14.98668 127.000
15.00842 121.000
15.03015 148.000
15.05188 125.000
15.07361 120.000
15.09535 119.000
15.11708 121.000
15.13881 132.000
15.16055 135.000
15.18228 124.000
15.20401 128.000
15.22575 114.000
15.24748 142.000
15.26921 167.000
15.29094 154.000
15.31268 150.000
15.33441 146.000
15.35614 221.000
15.37788 224.000
15.39961 275.000
15.42134 307.000
15.44307 353.000
15.46481 325.000
15.48654 351.000
15.50827 339.000
15.53001 310.000
15.55174 272.000
15.57347 244.000
15.59520 213.000
15.61694 183.000
15.63867 163.000
15.66040 155.000
15.68214 151.000
15.70387 123.000
15.72560 142.000
15.74733 163.000
15.76907 158.000
15.79080 151.000
15.81253 194.000
15.83427 182.000
15.85600 230.000
15.87773 235.000
15.89946 274.000
15.92120 240.000
15.94293 230.000
15.96466 223.000
15.98640 215.000
16.00813 190.000
16.02986 211.000
16.05159 161.000
16.07333 173.000
16.09506 159.000
16.11679 153.000
16.13853 142.000
16.16026 133.000
16.18199 120.000
16.20372 127.000
16.22546 146.000
16.24719 143.000
16.26892 124.000
16.29066 146.000
16.31239 134.000
16.33412 130.000
16.35585 131.000
16.37759 143.000
16.39932 134.000
16.42105 118.000
16.44279 128.000
16.46452 171.000
16.48625 171.000
16.50798 121.000
16.52972 147.000
16.55145 134.000
16.57318 127.000
16.59492 151.000
16.61665 162.000
16.63838 153.000
16.66012 131.000
16.68185 138.000
16.70358 149.000
16.72531 152.000
16.74705 160.000
16.76878 165.000
16.79051 174.000
16.81225 182.000
16.83398 189.000
16.85571 169.000
16.87744 172.000
16.89918 169.000
16.92091 161.000
16.94264 164.000
16.96438 173.000
16.98611 163.000
17.00784 160.000
17.02957 160.000
17.05131 172.000
17.07304 178.000
17.09477 186.000
17.11651 190.000
17.13824 201.000
17.15997 231.000
17.18170 267.000
17.20344 283.000
17.22517 301.000
17.24690 318.000
17.26864 298.000
17.29037 288.000
17.31210 277.000
17.33383 239.000
17.35557 245.000
17.37730 234.000
17.39903 265.000
17.42077 256.000
17.44250 218.000
17.46423 234.000
17.48596 211.000
17.50770 210.000
17.52943 216.000
17.55116 214.000
17.57290 179.000
17.59463 212.000
17.61636 177.000
17.63809 176.000
17.65983 146.000
17.68156 167.000
17.70329 172.000
17.72503 184.000
17.74676 155.000
17.76849 153.000
17.79022 199.000
17.81196 182.000
17.83369 213.000
17.85542 193.000
17.87716 217.000
17.89889 186.000
17.92062 182.000
17.94236 147.000
17.96409 180.000
17.98582 174.000
18.00755 174.000
18.02929 153.000
18.05102 148.000
18.07275 183.000
18.09449 153.000
18.11622 186.000
18.13795 154.000
18.15968 156.000
18.18142 163.000
18.20315 174.000
18.22488 189.000
18.24662 162.000
18.26835 166.000
18.29008 164.000
18.31181 172.000
18.33355 171.000
18.35528 160.000
18.37701 182.000
18.39875 182.000
18.42048 188.000
18.44221 192.000
18.46394 192.000
18.48568 169.000
18.50741 199.000
18.52914 195.000
18.55088 207.000
18.57261 194.000
18.59434 175.000
18.61607 193.000
18.63781 178.000
18.65954 152.000
18.68127 201.000
18.70301 194.000
18.72474 169.000
18.74647 180.000
18.76820 194.000
18.78994 208.000
18.81167 175.000
18.83340 201.000
18.85514 183.000
18.87687 189.000
18.89860 210.000
18.92033 204.000
18.94207 191.000
18.96380 183.000
18.98553 189.000
19.00727 171.000
19.02900 196.000
19.05073 201.000
19.07246 216.000
19.09420 183.000
19.11593 192.000
19.13766 191.000
19.15940 194.000
19.18113 206.000
19.20286 195.000
19.22459 219.000
19.24633 196.000
19.26806 215.000
19.28979 228.000
19.31153 265.000
19.33326 245.000
19.35499 259.000
19.37673 244.000
19.39846 230.000
19.42019 225.000
19.44192 206.000
19.46366 227.000
19.48539 205.000
19.50712 218.000
19.52886 225.000
19.55059 240.000
19.57232 183.000
19.59405 224.000
19.61579 231.000
19.63752 223.000
19.65925 259.000
19.68099 235.000
19.70272 233.000
19.72445 275.000
19.74618 341.000
19.76792 400.000
19.78965 407.000
19.81138 453.000
19.83312 477.000
19.85485 496.000
19.87658 464.000
19.89831 405.000
19.92005 382.000
19.94178 348.000
19.96351 324.000
19.98525 297.000
20.00698 236.000
20.02871 234.000
20.05044 243.000
20.07218 231.000
20.09391 227.000
20.11564 218.000
20.13738 220.000
20.15911 217.000
20.18084 210.000
20.20257 204.000
20.22431 199.000
20.24604 217.000
20.26777 239.000
20.28951 256.000
20.31124 213.000
20.33297 232.000
20.35470 245.000
20.37644 210.000
20.39817 230.000
20.41990 241.000
20.44164 216.000
20.46337 234.000
20.48510 221.000
20.50683 218.000
20.52857 223.000
20.55030 214.000
20.57203 235.000
20.59377 208.000
20.61550 205.000
20.63723 194.000
20.65897 211.000
20.68070 224.000
20.70243 264.000
20.72416 278.000
20.74590 326.000
20.76763 348.000
20.78936 419.000
20.81110 476.000
20.83283 497.000
20.85456 495.000
20.87629 476.000
20.89803 447.000
20.91976 412.000
20.94149 387.000
20.96323 264.000
20.98496 300.000
21.00669 249.000
21.02842 272.000
21.05016 268.000
21.07189 219.000
21.09362 220.000
21.11536 227.000
21.13709 202.000
21.15882 211.000
21.18055 198.000
21.20229 232.000
21.22402 228.000
21.24575 239.000
21.26749 227.000
21.28922 268.000
21.31095 287.000
21.33268 244.000
21.35442 224.000
21.37615 235.000
21.39788 204.000
21.41962 189.000
21.44135 188.000
21.46308 172.000
21.48481 208.000
21.50655 198.000
21.52828 197.000
21.55001 189.000
21.57175 192.000
21.59348 173.000
21.61521 199.000
21.63694 191.000
21.65868 228.000
21.68041 236.000
21.70214 311.000
21.72388 288.000
21.74561 289.000
21.76734 264.000
21.78907 262.000
21.81081 273.000
21.83254 279.000
21.85427 215.000
21.87601 213.000
21.89774 224.000
21.91947 189.000
21.94120 185.000
21.96294 184.000
21.98467 191.000
22.00640 205.000
22.02814 206.000
22.04987 191.000
22.07160 190.000
22.09334 188.000
22.11507 231.000
22.13680 231.000
22.15853 186.000
22.18027 191.000
22.20200 168.000
22.22373 191.000
22.24547 156.000
22.26720 178.000
22.28893 189.000
22.31066 174.000
22.33240 166.000
22.35413 181.000
22.37586 148.000
22.39760 166.000
22.41933 164.000
22.44106 151.000
22.46279 163.000
22.48453 200.000
22.50626 197.000
22.52799 198.000
22.54973 266.000
22.57146 293.000
22.59319 330.000
22.61492 366.000
22.63666 353.000
22.65839 335.000
22.68012 317.000
22.70186 290.000
22.72359 279.000
22.74532 231.000
22.76705 201.000
22.78879 194.000
22.81052 190.000
22.83225 168.000
22.85399 167.000
22.87572 164.000
22.89745 169.000
22.91918 205.000
22.94092 207.000
22.96265 249.000
22.98438 249.000
23.00612 229.000
23.02785 270.000
23.04958 280.000
23.07131 239.000
23.09305 210.000
23.11478 207.000
23.13651 187.000
23.15825 161.000
23.17998 177.000
23.20171 172.000
23.22344 171.000
23.24518 155.000
23.26691 160.000
23.28864 157.000
23.31038 155.000
23.33211 166.000
23.35384 144.000
23.37558 150.000
23.39731 174.000
23.41904 215.000
23.44077 207.000
23.46251 218.000
23.48424 242.000
23.50597 271.000
23.52771 295.000
23.54944 287.000
23.57117 347.000
23.59290 366.000
23.61464 362.000
23.63637 319.000
23.65810 328.000
23.67984 249.000
23.70157 228.000
23.72330 197.000
23.74503 179.000
23.76677 141.000
23.78850 136.000
23.81023 148.000
23.83197 138.000
23.85370 146.000
23.87543 133.000
23.89716 141.000
23.91890 175.000
23.94063 137.000
23.96236 156.000
23.98410 160.000
24.00583 187.000
24.02756 237.000
24.04929 317.000
24.07103 404.000
24.09276 507.000
24.11449 651.000
24.13623 705.000
24.15796 721.000
24.17969 708.000
24.20142 677.000
24.22316 600.000
24.24489 495.000
24.26662 441.000
24.28836 387.000
24.31009 333.000
24.33182 312.000
24.35355 302.000
24.37529 280.000
24.39702 300.000
24.41875 314.000
24.44049 310.000
24.46222 312.000
24.48395 322.000
24.50568 294.000
24.52742 237.000
24.54915 226.000
24.57088 162.000
24.59262 159.000
24.61435 140.000
24.63608 131.000
24.65781 146.000
24.67955 114.000
24.70128 134.000
24.72301 116.000
24.74475 105.000
24.76648 112.000
24.78821 114.000
24.80995 106.000
24.83168 132.000
24.85341 115.000
24.87514 109.000
24.89688 133.000
24.91861 116.000
24.94034 104.000
24.96208 136.000
24.98381 140.000
25.00554 112.000
25.02727 126.000
25.04901 98.000
25.07074 126.000
25.09247 139.000
25.11421 123.000
25.13594 118.000
25.15767 133.000
25.17940 152.000
25.20114 171.000
25.22287 190.000
25.24460 257.000
25.26634 297.000
25.28807 411.000
25.30980 485.000
25.33153 548.000
25.35327 603.000
25.37500 594.000
25.39673 526.000
25.41847 489.000
25.44020 431.000
25.46193 396.000
25.48366 371.000
25.50540 323.000
25.52713 259.000
25.54886 193.000
25.57060 200.000
25.59233 178.000
25.61406 179.000
25.63579 171.000
25.65753 140.000
25.67926 135.000
25.70099 150.000
25.72273 129.000
25.74446 148.000
25.76619 122.000
25.78792 136.000
25.80966 138.000
25.83139 134.000
25.85312 96.000
25.87486 110.000
25.89659 109.000
25.91832 104.000
25.94005 118.000
25.96179 108.000
25.98352 111.000
26.00525 105.000
26.02699 110.000
26.04872 117.000
26.07045 112.000
26.09219 113.000
26.11392 118.000
26.13565 87.000
26.15738 103.000
26.17912 112.000
26.20085 108.000
26.22258 110.000
26.24432 122.000
26.26605 117.000
26.28778 119.000
26.30951 139.000
26.33125 141.000
26.35298 152.000
26.37471 106.000
26.39645 153.000
26.41818 129.000
26.43991 109.000
26.46164 130.000
26.48338 147.000
26.50511 150.000
26.52684 108.000
26.54858 162.000
26.57031 159.000
26.59204 130.000
26.61377 149.000
26.63551 131.000
26.65724 113.000
26.67897 130.000
26.70071 110.000
26.72244 141.000
26.74417 100.000
26.76590 145.000
26.78764 134.000
26.80937 158.000
26.83110 155.000
26.85284 186.000
26.87457 184.000
26.89630 197.000
26.91803 241.000
26.93977 244.000
26.96150 217.000
26.98323 223.000
27.00497 206.000
27.02670 213.000
27.04843 185.000
27.07016 135.000
27.09190 142.000
27.11363 142.000
27.13536 132.000
27.15710 100.000
27.17883 115.000
27.20056 128.000
27.22229 112.000
27.24403 131.000
27.26576 105.000
27.28749 116.000
27.30923 121.000
27.33096 103.000
27.35269 103.000
27.37442 125.000
27.39616 121.000
27.41789 85.000
27.43962 78.000
27.46136 107.000
27.48309 103.000
27.50482 99.000
27.52656 109.000
27.54829 88.000
27.57002 116.000
27.59175 98.000
27.61349 96.000
27.63522 98.000
27.65695 99.000
27.67869 91.000
27.70042 105.000
27.72215 105.000
27.74388 113.000
27.76562 113.000
27.78735 118.000
27.80908 145.000
27.83082 163.000
27.85255 171.000
27.87428 169.000
27.89601 179.000
27.91775 163.000
27.93948 137.000
27.96121 144.000
27.98295 145.000
28.00468 121.000
28.02641 132.000
28.04814 131.000
28.06988 136.000
28.09161 154.000
28.11334 200.000
28.13508 281.000
28.15681 363.000
28.17854 570.000
28.20027 639.000
28.22201 807.000
28.24374 976.000
28.26547 992.000
28.28721 1052.000
28.30894 1044.000
28.33067 933.000
28.35240 792.000
28.37414 642.000
28.39587 511.000
28.41760 405.000
28.43934 306.000
28.46107 222.000
28.48280 208.000
28.50453 164.000
28.52627 129.000
28.54800 111.000
28.56973 93.000
28.59147 101.000
28.61320 86.000
28.63493 96.000
28.65666 92.000
28.67840 73.000
28.70013 78.000
28.72186 87.000
28.74360 74.000
28.76533 76.000
28.78706 74.000
28.80880 61.000
28.83053 52.000
28.85226 74.000
28.87399 84.000
28.89573 72.000
28.91746 67.000
28.93919 62.000
28.96093 83.000
28.98266 72.000
29.00439 76.000
29.02612 69.000
29.04786 64.000
29.06959 77.000
29.09132 78.000
29.11306 80.000
29.13479 78.000
29.15652 78.000
29.17825 57.000
29.19999 61.000
29.22172 63.000
29.24345 71.000
29.26519 78.000
29.28692 95.000
29.30865 83.000
29.33038 80.000
29.35212 78.000
29.37385 82.000
29.39558 97.000
29.41732 90.000
29.43905 115.000
29.46078 130.000
29.48251 134.000
29.50425 144.000
29.52598 103.000
29.54771 117.000
29.56945 101.000
29.59118 103.000
29.61291 105.000
29.63464 74.000
29.65638 65.000
29.67811 69.000
29.69984 61.000
29.72158 77.000
29.74331 57.000
29.76504 67.000
29.78677 71.000
29.80851 80.000
29.83024 59.000
29.85197 61.000
29.87371 53.000
29.89544 57.000
29.91717 62.000
29.93890 67.000
29.96064 80.000
29.98237 60.000
30.00410 56.000
30.02584 56.000
30.04757 68.000
30.06930 75.000
30.09103 73.000
30.11277 73.000
30.13450 75.000
30.15623 75.000
30.17797 80.000
30.19970 71.000
30.22143 74.000
30.24317 78.000
30.26490 97.000
30.28663 96.000
30.30836 94.000
30.33010 98.000
30.35183 109.000
30.37356 94.000
30.39530 91.000
30.41703 79.000
30.43876 94.000
30.46049 77.000
30.48223 76.000
30.50396 71.000
30.52569 70.000
30.54743 71.000
30.56916 66.000
30.59089 66.000
30.61262 74.000
30.63436 62.000
30.65609 69.000
30.67782 66.000
30.69956 62.000
30.72129 51.000
30.74302 62.000
30.76475 68.000
30.78649 67.000
30.80822 73.000
30.82995 57.000
30.85169 55.000
30.87342 59.000
30.89515 50.000
30.91688 44.000
30.93862 64.000
30.96035 66.000
30.98208 63.000
31.00382 62.000
31.02555 50.000
31.04728 52.000
31.06901 48.000
31.09075 47.000
31.11248 46.000
31.13421 51.000
31.15595 45.000
31.17768 53.000
31.19941 50.000
31.22114 49.000
31.24288 48.000
31.26461 59.000
31.28634 55.000
31.30808 58.000
31.32981 57.000
31.35154 47.000
31.37327 61.000
31.39501 46.000
31.41674 53.000
31.43847 52.000
31.46021 51.000
31.48194 45.000
31.50367 53.000
31.52541 32.000
31.54714 43.000
31.56887 43.000
31.59060 54.000
31.61234 61.000
31.63407 49.000
31.65580 52.000
31.67754 48.000
31.69927 47.000
31.72100 52.000
31.74273 61.000
31.76447 54.000
31.78620 58.000
31.80793 42.000
31.82967 37.000
31.85140 43.000
31.87313 40.000
31.89486 40.000
31.91660 47.000
31.93833 49.000
31.96006 38.000
31.98180 46.000
32.00353 51.000
32.02526 43.000
32.04699 48.000
32.06873 42.000
32.09046 61.000
32.11219 52.000
32.13393 55.000
32.15566 59.000
32.17739 61.000
32.19912 53.000
32.22086 76.000
32.24259 57.000
32.26432 58.000
32.28606 52.000
32.30779 75.000
32.32952 57.000
32.35125 60.000
32.37299 53.000
32.39472 68.000
32.41645 61.000
32.43819 63.000
32.45992 70.000
32.48165 64.000
32.50338 64.000
32.52512 107.000
32.54685 108.000
32.56858 125.000
32.59032 124.000
32.61205 126.000
32.63378 112.000
32.65551 93.000
32.67725 89.000
32.69898 97.000
32.72071 84.000
32.74245 81.000
32.76418 82.000
32.78591 75.000
32.80764 58.000
32.82938 71.000
32.85111 81.000
32.87284 55.000
32.89458 55.000
32.91631 52.000
32.93804 56.000
32.95978 47.000
32.98151 74.000
33.00324 55.000
33.02497 53.000
33.04671 56.000
33.06844 48.000
33.09017 44.000
33.11191 46.000
33.13364 34.000
33.15537 50.000
33.17710 41.000
33.19884 54.000
33.22057 51.000
33.24230 44.000
33.26404 46.000
33.28577 31.000
33.30750 45.000
33.32923 43.000
33.35097 55.000
33.37270 52.000
33.39443 46.000
33.41617 47.000
33.43790 48.000
33.45963 56.000
33.48136 48.000
33.50310 55.000
33.52483 49.000
33.54656 57.000
33.56830 51.000
33.59003 52.000
33.61176 58.000
33.63349 41.000
33.65523 58.000
33.67696 56.000
33.69869 54.000
33.72043 73.000
33.74216 55.000
33.76389 55.000
33.78562 53.000
33.80736 49.000
33.82909 43.000
33.85082 57.000
33.87256 61.000
33.89429 51.000
33.91602 66.000
33.93775 51.000
33.95949 54.000
33.98122 55.000
34.00295 73.000
34.02469 61.000
34.04642 62.000
34.06815 58.000
34.08988 55.000
34.11162 55.000
34.13335 60.000
34.15508 78.000
34.17682 76.000
34.19855 61.000
34.22028 61.000
34.24202 45.000
34.26375 70.000
34.28548 62.000
34.30721 48.000
34.32895 67.000
34.35068 74.000
34.37241 54.000
34.39415 47.000
34.41588 47.000
34.43761 45.000
34.45934 48.000
34.48108 44.000
34.50281 51.000
34.52454 53.000
34.54628 67.000
34.56801 54.000
34.58974 61.000
34.61147 57.000
34.63321 64.000
34.65494 42.000
34.67667 74.000
34.69841 72.000
34.72014 56.000
34.74187 66.000
34.76360 65.000
34.78534 49.000
34.80707 58.000
34.82880 67.000
34.85054 52.000
34.87227 52.000
34.89400 42.000
34.91573 41.000
34.93747 62.000
34.95920 76.000
34.98093 65.000
35.00267 58.000
35.02440 60.000
35.04613 61.000
35.06786 61.000
35.08960 60.000
35.11133 39.000
35.13306 61.000
35.15480 70.000
35.17653 47.000
35.19826 55.000
35.21999 41.000
35.24173 52.000
35.26346 49.000
35.28519 65.000
35.30693 56.000
35.32866 54.000
35.35039 54.000
35.37212 49.000
35.39386 43.000
35.41559 57.000
35.43732 42.000
35.45906 52.000
35.48079 43.000
35.50252 64.000
35.52425 48.000
35.54599 63.000
35.56772 49.000
35.58945 54.000
35.61119 57.000
35.63292 49.000
35.65465 58.000
35.67639 47.000
35.69812 65.000
35.71985 48.000
35.74158 45.000
35.76332 53.000
35.78505 51.000
35.80678 47.000
35.82852 66.000
35.85025 41.000
35.87198 43.000
35.89371 55.000
35.91545 42.000
35.93718 54.000
35.95891 39.000
35.98065 52.000
36.00238 42.000
36.02411 52.000
36.04584 55.000
36.06758 48.000
36.08931 50.000
36.11104 54.000
36.13278 40.000
36.15451 50.000
36.17624 35.000
36.19797 54.000
36.21971 55.000
36.24144 50.000
36.26317 63.000
36.28491 89.000
36.30664 62.000
36.32837 58.000
36.35010 59.000
36.37184 53.000
36.39357 47.000
36.41530 59.000
36.43704 47.000
36.45877 41.000
36.48050 61.000
36.50223 44.000
36.52397 40.000
36.54570 41.000
36.56743 59.000
36.58917 51.000
36.61090 43.000
36.63263 54.000
36.65436 50.000
36.67610 47.000
36.69783 52.000
36.71956 44.000
36.74130 69.000
36.76303 46.000
36.78476 40.000
36.80649 50.000
36.82823 54.000
36.84996 44.000
36.87169 54.000
36.89343 54.000
36.91516 52.000
36.93689 57.000
36.95863 61.000
36.98036 58.000
37.00209 57.000
37.02382 52.000
37.04556 58.000
37.06729 55.000
37.08902 47.000
37.11076 48.000
37.13249 41.000
37.15422 53.000
37.17595 52.000
37.19769 43.000
37.21942 39.000
37.24115 41.000
37.26289 37.000
37.28462 35.000
37.30635 53.000
37.32808 43.000
37.34982 44.000
37.37155 48.000
37.39328 52.000
37.41502 44.000
37.43675 47.000
37.45848 70.000
37.48021 73.000
37.50195 53.000
37.52368 58.000
37.54541 63.000
37.56715 49.000
37.58888 47.000
37.61061 47.000
37.63234 57.000
37.65408 62.000
37.67581 59.000
37.69754 72.000
37.71928 46.000
37.74101 62.000
37.76274 59.000
37.78447 45.000
37.80621 43.000
37.82794 54.000
37.84967 44.000
37.87141 56.000
37.89314 49.000
37.91487 37.000
37.93660 43.000
37.95834 45.000
37.98007 35.000
38.00180 46.000
38.02354 31.000
38.04527 36.000
38.06700 37.000
38.08873 33.000
38.11047 36.000
38.13220 48.000
38.15393 38.000
38.17567 39.000
38.19740 52.000
38.21913 54.000
38.24086 44.000
38.26260 57.000
38.28433 41.000
38.30606 49.000
38.32780 44.000
38.34953 39.000
38.37126 40.000
38.39300 46.000
38.41473 43.000
38.43646 50.000
38.45819 54.000
38.47993 47.000
38.50166 50.000
38.52339 57.000
38.54513 65.000
38.56686 74.000
38.58859 82.000
38.61032 80.000
38.63206 81.000
38.65379 89.000
38.67552 93.000
38.69726 78.000
38.71899 87.000
38.74072 71.000
38.76245 80.000
38.78419 60.000
38.80592 68.000
38.82765 52.000
38.84939 48.000
38.87112 60.000
38.89285 41.000
38.91458 43.000
38.93632 47.000
38.95805 42.000
38.97978 51.000
39.00152 56.000
39.02325 53.000
39.04498 59.000
39.06671 69.000
39.08845 74.000
39.11018 72.000
39.13191 90.000
39.15365 78.000
39.17538 64.000
39.19711 80.000
39.21884 68.000
39.24058 71.000
39.26231 70.000
39.28404 71.000
39.30578 58.000
39.32751 82.000
39.34924 80.000
39.37097 88.000
39.39271 93.000
39.41444 99.000
39.43617 92.000
39.45791 99.000
39.47964 95.000
39.50137 77.000
39.52310 79.000
39.54484 71.000
39.56657 93.000
39.58830 71.000
39.61004 67.000
39.63177 49.000
39.65350 47.000
39.67524 52.000
39.69697 55.000
39.71870 32.000
39.74043 43.000
39.76217 39.000
39.78390 37.000
39.80563 28.000
39.82737 44.000
39.84910 41.000
39.87083 48.000
39.89256 37.000
39.91430 48.000
39.93603 48.000
39.95776 42.000
39.97950 42.000
40.00123 43.000
40.02296 57.000
40.04469 59.000
40.06643 53.000
40.08816 55.000
40.10989 56.000
40.13163 59.000
40.15336 56.000
40.17509 71.000
40.19682 71.000
40.21856 82.000
40.24029 81.000
40.26202 99.000
40.28376 149.000
40.30549 173.000
40.32722 216.000
40.34895 314.000
40.37069 377.000
40.39242 408.000
40.41415 486.000
40.43589 434.000
40.45762 479.000
40.47935 471.000
40.50108 452.000
40.52282 381.000
40.54455 382.000
40.56628 340.000
40.58802 259.000
40.60975 225.000
40.63148 186.000
40.65321 141.000
40.67495 122.000
40.69668 111.000
40.71841 76.000
40.74015 99.000
40.76188 91.000
40.78361 77.000
40.80534 72.000
40.82708 58.000
40.84881 54.000
40.87054 60.000
40.89228 56.000
40.91401 54.000
40.93574 47.000
40.95747 46.000
40.97921 39.000
41.00094 48.000
41.02267 40.000
41.04441 49.000
41.06614 39.000
41.08787 59.000
41.10961 53.000
41.13134 34.000
41.15307 55.000
41.17480 36.000
41.19654 40.000
41.21827 35.000
41.24000 40.000
41.26174 48.000
41.28347 46.000
41.30520 47.000
41.32693 34.000
41.34867 45.000
41.37040 40.000
41.39213 37.000
41.41387 40.000
41.43560 37.000
41.45733 46.000
41.47906 51.000
41.50080 58.000
41.52253 57.000
41.54426 65.000
41.56600 58.000
41.58773 57.000
41.60946 47.000
41.63119 51.000
41.65293 38.000
41.67466 52.000
41.69639 52.000
41.71813 41.000
41.73986 38.000
41.76159 44.000
41.78332 59.000
41.80506 58.000
41.82679 50.000
41.84852 68.000
41.87026 50.000
41.89199 61.000
41.91372 58.000
41.93545 60.000
41.95719 52.000
41.97892 54.000
42.00065 62.000
42.02239 72.000
42.04412 64.000
42.06585 71.000
42.08758 45.000
42.10932 49.000
42.13105 51.000
42.15278 54.000
42.17452 49.000
42.19625 38.000
42.21798 41.000
42.23971 39.000
42.26145 46.000
42.28318 46.000
42.30491 32.000
42.32665 39.000
42.34838 41.000
42.37011 57.000
42.39185 48.000
42.41358 41.000
42.43531 50.000
42.45704 55.000
42.47878 56.000
42.50051 49.000
42.52224 33.000
42.54398 48.000
42.56571 43.000
42.58744 40.000
42.60917 41.000
42.63091 45.000
42.65264 38.000
42.67437 34.000
42.69611 32.000
42.71784 40.000
42.73957 47.000
42.76130 48.000
42.78304 42.000
42.80477 48.000
42.82650 38.000
42.84824 48.000
42.86997 47.000
42.89170 51.000
42.91343 46.000
42.93517 56.000
42.95690 46.000
42.97863 36.000
43.00037 48.000
43.02210 57.000
43.04383 48.000
43.06556 33.000
43.08730 55.000
43.10903 38.000
43.13076 50.000
43.15250 35.000
43.17423 40.000
43.19596 37.000
43.21769 40.000
43.23943 36.000
43.26116 33.000
43.28289 31.000
43.30463 26.000
43.32636 28.000
43.34809 49.000
43.36982 42.000
43.39156 50.000
43.41329 40.000
43.43502 42.000
43.45676 43.000
43.47849 41.000
43.50022 36.000
43.52195 36.000
43.54369 33.000
43.56542 35.000
43.58715 33.000
43.60889 39.000
43.63062 44.000
43.65235 33.000
43.67408 32.000
43.69582 32.000
43.71755 40.000
43.73928 36.000
43.76102 45.000
43.78275 33.000
43.80448 35.000
43.82622 33.000
43.84795 44.000
43.86968 35.000
43.89141 42.000
43.91315 49.000
43.93488 27.000
43.95661 29.000
43.97835 49.000
44.00008 39.000
44.02181 43.000
44.04354 36.000
44.06528 47.000
44.08701 39.000
44.10874 48.000
44.13048 42.000
44.15221 28.000
44.17394 43.000
44.19567 45.000
44.21741 39.000
44.23914 49.000
44.26087 41.000
44.28261 35.000
44.30434 39.000
44.32607 33.000
44.34780 49.000
44.36954 38.000
44.39127 52.000
44.41300 40.000
44.43474 30.000
44.45647 43.000
44.47820 41.000
44.49993 40.000
44.52167 32.000
44.54340 28.000
44.56513 30.000
44.58687 18.000
44.60860 39.000
44.63033 32.000
44.65206 33.000
44.67380 33.000
44.69553 46.000
44.71726 28.000
44.73900 44.000
44.76073 31.000
44.78246 35.000
44.80419 27.000
44.82593 34.000
44.84766 41.000
44.86939 38.000
44.89113 47.000
44.91286 27.000
44.93459 32.000
44.95632 41.000
44.97806 24.000
44.99979 42.000
